1.195320;0.015625
0.101129;0.046875
-0.415238;0.046875
-1.104209;0.046875
-0.704051;0.062500
-0.236136;0.062500
-0.345465;0.062500
0.134872;0.062500
0.555453;0.062500
0.366594;0.078125
0.492357;0.078125
0.524323;0.078125
0.188376;0.078125
0.019461;0.078125
0.012514;0.078125
-0.242677;0.078125
-0.228410;0.078125
-0.187772;0.093750
-0.163665;0.093750
-0.125898;0.093750
-0.025327;0.093750
-0.021407;0.093750
0.036325;0.109375
0.047064;0.109375
0.056144;0.109375
0.044659;0.109375
-0.004731;0.140625
0.026711;0.140625
0.080877;0.140625
0.034379;0.140625
-0.002425;0.140625
-0.038161;0.171875
-0.072444;0.171875
-0.100228;0.171875
-0.012027;0.171875
-0.027148;0.203125
0.058178;0.203125
0.121917;0.203125
0.021847;0.203125
0.031448;0.234375
0.035636;0.234375
-0.046655;0.234375
-0.028105;0.234375
0.032277;0.281250
0.027780;0.281250
-0.032406;0.281250
-0.099805;0.281250
-0.164449;0.296875
-0.043753;0.296875
-0.033246;0.296875
0.071502;0.312500
0.067096;0.312500
0.148250;0.312500
0.110179;0.343750
0.058350;0.343750
0.020645;0.343750
-0.031810;0.359375
-0.074859;0.359375
-0.085079;0.359375
-0.059744;0.375000
-0.032788;0.375000
-0.031181;0.375000
-0.013016;0.375000
0.002845;0.375000
0.075006;0.375000
0.055863;0.375000
0.039736;0.421875
0.004054;0.421875
-0.008421;0.421875
-0.048651;0.437500
-0.056552;0.437500
-0.056006;0.437500
0.034794;0.484375
0.065698;0.484375
0.032861;0.484375
0.047862;0.531250
-0.027214;0.531250
-0.031009;0.531250
-0.074921;0.531250
0.029002;0.531250
-0.008700;0.546875
0.038058;0.546875
0.028882;0.546875
0.037887;0.546875
0.032112;0.578125
-0.033487;0.578125
-0.060452;0.578125
-0.047158;0.578125
-0.040847;0.609375
0.004662;0.609375
0.037999;0.609375
0.048156;0.609375
0.052129;0.625000
-0.011231;0.625000
-0.028694;0.625000
-0.030505;0.625000
-0.019392;0.656250
0.002923;0.656250
-0.023502;0.656250
-0.007875;0.656250
-0.035424;0.656250
0.028160;0.671875
0.038352;0.671875
0.039738;0.671875
0.061992;0.671875
0.022633;0.718750
0.023587;0.718750
0.002034;0.718750
-0.010579;0.718750
-0.081464;0.750000
-0.100353;0.750000
0.013680;0.750000
-0.046082;0.750000
0.022399;0.750000
0.013965;0.765625
0.034546;0.765625
0.030630;0.765625
-0.003828;0.765625
0.001187;0.812500
-0.021611;0.812500
-0.042151;0.812500
0.023468;0.812500
0.063620;0.828125
0.025622;0.828125
0.038079;0.828125
0.048944;0.828125
0.011954;0.843750
-0.047275;0.843750
-0.113904;0.843750
-0.080210;0.843750
-0.056685;0.843750
0.010011;0.859375
0.001258;0.859375
0.044149;0.859375
0.062256;0.859375
0.094274;0.890625
0.055783;0.890625
0.001926;0.890625
-0.010979;0.890625
0.015455;0.890625
-0.035936;0.906250
-0.089846;0.906250
-0.054400;0.906250
0.009303;0.906250
0.002895;0.953125
-0.003666;0.953125
0.004473;0.953125
-0.007393;0.953125
0.023502;0.984375
0.016929;0.984375
0.008000;0.984375
0.014902;0.984375
0.005506;0.984375
-0.003770;1.000000
-0.017747;1.000000
-0.022424;1.000000
0.029873;1.000000
-0.007878;1.031250
0.035989;1.031250
-0.004338;1.031250
-0.004456;1.031250
0.007072;1.046875
-0.006639;1.046875
0.012218;1.046875
-0.038948;1.046875
-0.039338;1.046875
0.013599;1.093750
-0.006841;1.093750
0.038644;1.093750
0.035115;1.093750
0.025927;1.093750
-0.010729;1.109375
-0.047600;1.109375
-0.049787;1.109375
0.032693;1.109375
-0.038932;1.140625
-0.006967;1.140625
0.000303;1.140625
0.033788;1.140625
-0.004014;1.171875
-0.034499;1.171875
0.025428;1.171875
0.072763;1.171875
0.057333;1.187500
0.026705;1.187500
-0.006713;1.187500
-0.032102;1.187500
-0.048543;1.187500
-0.056050;1.234375
-0.060577;1.234375
0.002832;1.234375
0.011822;1.234375
0.027082;1.265625
0.031456;1.265625
0.026453;1.265625
0.011816;1.265625
-0.003692;1.265625
-0.017960;1.296875
0.010337;1.296875
-0.016701;1.296875
0.041792;1.296875
0.034975;1.328125
-0.002451;1.328125
-0.044894;1.328125
-0.082794;1.328125
-0.061165;1.328125
-0.016330;1.328125
0.023688;1.328125
0.074121;1.375000
0.067752;1.375000
0.053217;1.375000
0.016412;1.375000
-0.017023;1.390625
-0.058449;1.390625
-0.024745;1.390625
-0.036448;1.421875
0.007456;1.421875
0.008916;1.421875
0.032329;1.421875
-0.016133;1.437500
-0.018455;1.437500
0.003234;1.437500
0.016869;1.437500
-0.018949;1.437500
0.012628;1.437500
0.010508;1.437500
0.006189;1.453125
-0.015018;1.453125
-0.006144;1.453125
-0.008455;1.468750
0.018057;1.468750
0.004551;1.468750
0.023745;1.500000
0.008490;1.500000
-0.013331;1.500000
-0.027694;1.515625
-0.043649;1.515625
0.017552;1.515625
0.036096;1.531250
-0.020532;1.531250
0.002734;1.531250
0.016451;1.531250
0.040784;1.546875
-0.028923;1.546875
-0.025382;1.546875
-0.007239;1.593750
0.008691;1.593750
0.033572;1.593750
-0.000868;1.625000
0.014662;1.625000
-0.001058;1.625000
-0.010410;1.625000
-0.025360;1.625000
-0.024602;1.625000
-0.014595;1.625000
-0.049227;1.671875
0.011209;1.671875
0.028357;1.671875
0.032743;1.671875
0.004661;1.687500
0.009745;1.687500
0.018147;1.687500
0.019405;1.734375
0.006400;1.734375
0.033838;1.734375
-0.006050;1.734375
0.008522;1.750000
-0.039994;1.750000
-0.062853;1.750000
-0.009820;1.750000
0.001535;1.750000
-0.008654;1.750000
-0.034262;1.796875
-0.023792;1.796875
0.009951;1.796875
0.023365;1.796875
0.020303;1.812500
0.064439;1.812500
0.045378;1.812500
0.042727;1.843750
0.043372;1.843750
-0.012873;1.843750
-0.064030;1.859375
-0.047556;1.859375
-0.045881;1.859375
-0.046449;1.859375
-0.056808;1.890625
-0.025480;1.890625
0.003499;1.890625
0.064757;1.890625
0.046470;1.890625
0.059601;1.906250
0.009646;1.906250
0.034459;1.906250
0.005912;1.906250
-0.028268;1.937500
0.007183;1.937500
0.023684;1.937500
0.003898;1.937500
-0.084095;1.968750
-0.018450;1.968750
-0.044341;1.968750
-0.042212;1.968750
0.022768;2.000000
0.028011;2.000000
0.082134;2.000000
-0.007312;2.062500
0.001367;2.062500
-0.015199;2.062500
-0.007682;2.062500
0.022183;2.093750
0.021695;2.093750
0.029013;2.093750
0.017299;2.093750
-0.040644;2.093750
-0.110121;2.093750
-0.058630;2.093750
0.016677;2.109375
-0.009104;2.109375
0.052789;2.109375
0.075772;2.109375
0.055801;2.109375
0.007922;2.109375
-0.034790;2.156250
-0.004640;2.156250
0.015083;2.156250
-0.040566;2.156250
-0.007785;2.171875
0.014724;2.171875
0.005810;2.171875
0.007183;2.218750
-0.086820;2.218750
-0.015632;2.218750
-0.045785;2.218750
-0.022840;2.234375
0.015541;2.234375
0.059429;2.234375
0.083558;2.281250
0.043267;2.281250
0.037300;2.281250
0.030790;2.281250
-0.001749;2.296875
-0.042837;2.296875
-0.035397;2.296875
-0.040697;2.296875
-0.027420;2.296875
-0.019554;2.296875
0.001648;2.296875
0.067769;2.328125
-0.013832;2.328125
-0.092499;2.328125
-0.077801;2.343750
-0.027604;2.343750
-0.004216;2.343750
0.024815;2.390625
0.083997;2.390625
0.141451;2.390625
0.090441;2.390625
0.082214;2.406250
0.016809;2.406250
-0.039370;2.406250
-0.107852;2.453125
-0.115962;2.453125
-0.084455;2.453125
-0.037357;2.453125
-0.000023;2.468750
0.007850;2.468750
0.009058;2.468750
0.046145;2.468750
0.032812;2.468750
0.016084;2.468750
-0.008728;2.515625
0.034379;2.515625
0.030228;2.515625
0.022885;2.515625
0.011160;2.531250
0.006505;2.531250
-0.015306;2.531250
-0.052280;2.578125
-0.079139;2.578125
0.027272;2.578125
0.011383;2.578125
0.029341;2.578125
-0.023628;2.578125
0.000839;2.578125
0.001339;2.625000
-0.015300;2.625000
0.002474;2.625000
0.022076;2.625000
0.019567;2.640625
0.061205;2.640625
0.072746;2.640625
-0.023947;2.687500
-0.084364;2.687500
-0.140622;2.687500
0.018974;2.687500
-0.005470;2.703125
-0.020441;2.703125
0.014022;2.703125
-0.004400;2.718750
0.062414;2.718750
0.024548;2.718750
0.034432;2.718750
0.046620;2.750000
0.037374;2.750000
0.014351;2.750000
0.034878;2.750000
0.006633;2.750000
-0.036900;2.781250
-0.046372;2.781250
-0.105403;2.781250
-0.085937;2.781250
-0.015753;2.812500
-0.051423;2.812500
0.023109;2.812500
0.066389;2.812500
0.085110;2.843750
0.085070;2.843750
0.007863;2.843750
-0.059008;2.843750
-0.038724;2.859375
-0.034861;2.859375
-0.008986;2.859375
0.058854;2.906250
0.043560;2.906250
0.029386;2.906250
0.016008;2.906250
-0.006549;2.921875
-0.045873;2.921875
-0.026828;2.921875
-0.063084;2.921875
0.017305;2.921875
-0.007388;2.921875
-0.015555;2.968750
-0.014159;2.968750
0.005352;2.968750
0.046324;2.968750
0.037701;2.968750
0.027059;2.968750
-0.018576;2.968750
0.022729;3.015625
-0.024354;3.015625
-0.009173;3.015625
-0.015363;3.015625
0.011867;3.031250
-0.004225;3.031250
-0.006036;3.031250
-0.015238;3.031250
-0.022691;3.031250
-0.024190;3.031250
-0.012232;3.078125
0.007554;3.078125
0.047293;3.078125
0.038231;3.078125
0.040731;3.078125
0.029437;3.078125
-0.006808;3.078125
-0.042959;3.125000
-0.030067;3.125000
-0.023924;3.125000
0.010086;3.125000
0.024028;3.140625
-0.016263;3.140625
-0.044745;3.140625
-0.075818;3.187500
-0.032253;3.187500
0.009887;3.187500
0.049311;3.187500
0.095509;3.203125
0.088751;3.203125
0.059269;3.203125
0.028009;3.218750
-0.037532;3.218750
-0.087663;3.218750
-0.072468;3.250000
-0.028654;3.250000
0.008657;3.250000
-0.046397;3.250000
-0.019289;3.250000
-0.029423;3.250000
0.005759;3.250000
0.028290;3.296875
0.055344;3.296875
0.075133;3.296875
0.103753;3.296875
0.039539;3.312500
-0.002707;3.312500
-0.051305;3.312500
-0.070142;3.359375
-0.070579;3.359375
-0.061786;3.359375
-0.034722;3.406250
0.014017;3.406250
0.014743;3.406250
0.026439;3.406250
0.013223;3.421875
-0.001549;3.421875
0.030200;3.421875
0.013969;3.421875
0.028138;3.421875
0.011838;3.421875
0.045115;3.468750
0.007715;3.468750
0.018121;3.468750
-0.043349;3.468750
-0.060968;3.484375
-0.041392;3.484375
-0.043552;3.484375
0.024798;3.531250
0.032233;3.531250
0.022289;3.531250
-0.006216;3.531250
-0.044397;3.546875
-0.018931;3.546875
0.026878;3.546875
0.039040;3.546875
0.011553;3.546875
-0.027803;3.546875
0.013268;3.593750
0.018986;3.593750
0.002526;3.593750
0.022209;3.593750
0.004936;3.609375
0.038222;3.609375
-0.003847;3.609375
0.021218;3.640625
-0.035772;3.640625
-0.104725;3.640625
-0.089082;3.671875
-0.019401;3.671875
0.044338;3.671875
0.085281;3.671875
0.085366;3.687500
0.042749;3.687500
-0.004631;3.687500
-0.030973;3.687500
-0.039122;3.687500
-0.063196;3.687500
-0.027691;3.734375
-0.011082;3.734375
-0.020848;3.734375
0.027659;3.750000
0.033536;3.750000
0.029394;3.750000
0.025144;3.796875
-0.001122;3.796875
0.051443;3.796875
-0.001365;3.796875
-0.001921;3.812500
-0.012401;3.812500
-0.020494;3.812500
-0.065931;3.859375
-0.066559;3.859375
-0.012321;3.859375
-0.001484;3.906250
0.038934;3.906250
0.081381;3.906250
0.089781;3.906250
0.019069;3.921875
-0.062128;3.921875
-0.097736;3.921875
-0.046236;3.968750
-0.042674;3.968750
0.044744;3.968750
0.076990;3.968750
0.079959;3.968750
0.050232;3.968750
-0.002576;3.968750
-0.046359;4.015625
-0.028978;4.015625
-0.025952;4.015625
-0.057528;4.015625
-0.003108;4.031250
0.000094;4.031250
0.019786;4.031250
-0.012767;4.046875
0.003589;4.046875
-0.000781;4.046875
-0.040868;4.093750
-0.044750;4.093750
0.033932;4.093750
0.044970;4.109375
0.064168;4.109375
0.033548;4.109375
0.009311;4.109375
0.044923;4.109375
-0.022712;4.109375
-0.015300;4.109375
-0.052273;4.156250
-0.035512;4.156250
0.000563;4.156250
-0.024189;4.156250
-0.022470;4.171875
0.016979;4.171875
-0.006190;4.171875
0.000476;4.171875
0.038720;4.171875
0.037249;4.203125
0.037229;4.203125
-0.026763;4.203125
-0.025355;4.203125
-0.004327;4.234375
-0.019093;4.234375
-0.039399;4.234375
0.006463;4.234375
0.002134;4.250000
0.000787;4.250000
-0.004389;4.250000
0.011570;4.250000
0.035041;4.250000
-0.005004;4.265625
0.052154;4.265625
0.023665;4.265625
0.032000;4.265625
-0.035019;4.281250
-0.063975;4.281250
-0.049688;4.281250
-0.016891;4.281250
-0.000861;4.281250
0.003777;4.328125
0.007380;4.328125
0.011319;4.328125
0.046377;4.328125
0.027734;4.359375
-0.001926;4.359375
-0.001195;4.359375
-0.026572;4.359375
-0.006910;4.359375
0.049933;4.375000
0.029386;4.375000
0.004289;4.375000
-0.068520;4.375000
-0.117472;4.406250
-0.023413;4.406250
0.000280;4.406250
0.071556;4.406250
0.085851;4.421875
0.006144;4.421875
-0.012469;4.421875
-0.069985;4.421875
-0.014848;4.421875
0.013753;4.453125
0.032866;4.453125
0.081327;4.453125
0.076910;4.453125
0.023560;4.484375
-0.024717;4.484375
-0.075406;4.484375
-0.068696;4.484375
-0.082917;4.484375
-0.063122;4.515625
-0.016774;4.515625
0.029342;4.515625
0.027330;4.515625
0.062685;4.515625
0.040251;4.531250
0.082694;4.531250
0.042198;4.531250
-0.003409;4.531250
-0.018909;4.531250
-0.041191;4.546875
-0.062030;4.546875
-0.043446;4.546875
-0.036005;4.546875
0.004703;4.578125
-0.003246;4.578125
0.022804;4.578125
0.082474;4.578125
0.039421;4.593750
0.011799;4.593750
-0.038798;4.593750
-0.043692;4.593750
-0.026517;4.593750
0.004308;4.640625
0.013496;4.640625
0.019163;4.640625
0.036109;4.640625
-0.017474;4.640625
-0.050154;4.656250
0.014682;4.656250
0.013429;4.656250
0.007967;4.656250
-0.018764;4.687500
0.046117;4.687500
0.031556;4.687500
-0.024231;4.687500
-0.042683;4.687500
-0.053854;4.703125
-0.029879;4.703125
-0.020418;4.703125
0.038322;4.703125
0.026982;4.718750
0.039518;4.718750
0.039159;4.718750
-0.010551;4.718750
0.057573;4.718750
0.027345;4.765625
0.017658;4.765625
-0.076921;4.765625
-0.076178;4.781250
-0.070325;4.781250
-0.068127;4.781250
-0.006935;4.781250
0.040110;4.796875
0.070991;4.796875
0.103633;4.796875
0.088756;4.796875
0.055067;4.796875
-0.003197;4.828125
-0.063690;4.828125
-0.116824;4.828125
-0.033238;4.828125
-0.040824;4.859375
-0.040662;4.859375
-0.027135;4.859375
-0.012809;4.859375
0.077912;4.859375
0.033495;4.890625
0.039031;4.890625
0.030144;4.890625
0.014430;4.890625
0.022507;4.890625
0.012184;4.921875
-0.016739;4.921875
-0.022722;4.921875
-0.014224;4.921875
-0.076700;4.937500
0.030765;4.937500
-0.008105;4.937500
-0.009770;4.937500
0.003649;4.937500
0.000193;4.984375
0.014531;4.984375
-0.017646;4.984375
-0.009716;4.984375
0.031935;4.984375
0.006458;5.015625
0.052873;5.015625
0.045345;5.015625
0.032500;5.015625
-0.034711;5.046875
-0.074362;5.046875
-0.082619;5.046875
-0.057215;5.046875
-0.030220;5.078125
-0.006520;5.078125
0.064350;5.078125
0.119547;5.078125
0.115025;5.078125
0.034514;5.093750
-0.024269;5.093750
-0.098389;5.093750
-0.081605;5.093750
-0.028657;5.125000
-0.009196;5.125000
0.053280;5.125000
0.029336;5.125000
0.019837;5.125000
-0.016140;5.140625
-0.021918;5.140625
-0.034303;5.140625
-0.026687;5.140625
-0.054716;5.171875
0.043323;5.171875
0.013979;5.171875
0.063165;5.171875
0.051275;5.187500
0.040546;5.187500
0.024829;5.187500
0.013789;5.187500
0.008099;5.187500
-0.040561;5.218750
-0.088182;5.218750
-0.116705;5.218750
-0.028051;5.218750
-0.040517;5.218750
0.027319;5.250000
0.060361;5.250000
0.101147;5.250000
0.045106;5.250000
0.003004;5.281250
-0.002780;5.281250
-0.005173;5.281250
-0.008479;5.281250
-0.001648;5.281250
-0.010266;5.312500
-0.001377;5.312500
0.006088;5.312500
-0.022291;5.312500
-0.067362;5.312500
-0.003693;5.343750
-0.001725;5.343750
-0.001220;5.343750
-0.017532;5.343750
0.009517;5.359375
0.039721;5.359375
0.010111;5.359375
0.034459;5.359375
0.019420;5.359375
0.037758;5.390625
-0.012125;5.390625
0.003814;5.390625
-0.016401;5.390625
0.006888;5.390625
-0.018841;5.406250
-0.069982;5.406250
-0.056412;5.406250
-0.009488;5.437500
0.005980;5.437500
0.035928;5.437500
0.044096;5.437500
0.049177;5.468750
0.006795;5.468750
0.001615;5.468750
-0.018592;5.515625
0.021862;5.515625
-0.006062;5.515625
-0.033342;5.531250
-0.029286;5.531250
0.005267;5.531250
-0.005449;5.531250
-0.011363;5.546875
-0.024882;5.546875
0.028689;5.546875
0.030966;5.562500
0.014928;5.562500
0.010013;5.562500
-0.043600;5.562500
-0.036966;5.593750
-0.029353;5.593750
0.005208;5.593750
0.030373;5.640625
0.059682;5.640625
0.076287;5.640625
0.065808;5.640625
-0.010475;5.640625
-0.100748;5.640625
-0.032797;5.640625
-0.038016;5.671875
-0.015093;5.671875
-0.022162;5.671875
0.018620;5.671875
0.032895;5.671875
0.000409;5.671875
-0.017736;5.671875
0.003086;5.687500
-0.004277;5.687500
-0.018229;5.687500
0.010750;5.687500
0.047473;5.703125
0.038646;5.703125
0.018810;5.703125
-0.062406;5.734375
0.019887;5.734375
-0.008648;5.734375
0.006849;5.734375
-0.034133;5.750000
0.002463;5.750000
0.019230;5.750000
-0.028631;5.796875
-0.035600;5.796875
-0.012847;5.796875
0.007555;5.796875
0.031092;5.796875
0.063246;5.796875
0.028427;5.796875
0.034454;5.812500
-0.005992;5.812500
-0.071800;5.812500
-0.011195;5.812500
-0.067073;5.828125
-0.013050;5.828125
-0.022868;5.828125
0.015025;5.859375
0.062174;5.859375
0.035719;5.859375
0.006678;5.859375
-0.002872;5.875000
-0.017419;5.875000
0.004094;5.875000
0.025860;5.875000
0.037661;5.875000
0.001285;5.875000
-0.000955;5.890625
-0.083271;5.890625
-0.017965;5.890625
-0.079938;5.890625
-0.012646;5.890625
0.016043;5.921875
0.061437;5.921875
0.044272;5.921875
-0.006646;5.921875
-0.017938;5.921875
0.017387;5.937500
0.027253;5.937500
0.082106;5.937500
0.052010;5.937500
-0.006365;5.953125
-0.066786;5.953125
-0.070786;5.953125
-0.091227;5.953125
-0.049379;5.953125
0.019533;5.984375
0.035876;5.984375
0.029004;5.984375
0.057633;5.984375
0.016816;6.000000
0.003287;6.000000
-0.051571;6.000000
-0.014709;6.000000
0.031069;6.000000
-0.000210;6.000000
0.036155;6.031250
0.035243;6.031250
0.000704;6.031250
-0.026872;6.031250
-0.036546;6.031250
-0.052331;6.062500
-0.005411;6.062500
0.009409;6.062500
0.020841;6.062500
-0.003726;6.078125
0.001521;6.078125
-0.009149;6.078125
0.006514;6.125000
0.019829;6.125000
0.033876;6.125000
0.004065;6.125000
0.018666;6.125000
-0.007700;6.125000
-0.003681;6.125000
-0.043522;6.125000
-0.029155;6.140625
0.017694;6.140625
-0.001041;6.140625
0.025258;6.187500
-0.005817;6.187500
-0.016617;6.187500
-0.027083;6.187500
-0.013801;6.203125
-0.005166;6.203125
0.014438;6.203125
0.051779;6.203125
0.049894;6.203125
0.037609;6.203125
0.008078;6.203125
-0.046504;6.218750
-0.063044;6.218750
-0.026968;6.218750
-0.014869;6.218750
-0.002127;6.250000
0.018143;6.250000
0.028614;6.250000
0.011369;6.250000
-0.001370;6.250000
-0.028234;6.281250
0.003343;6.281250
0.008816;6.281250
0.018719;6.281250
0.029381;6.281250
0.005312;6.312500
0.007321;6.312500
0.002089;6.312500
-0.036255;6.312500
-0.054369;6.312500
-0.051657;6.343750
-0.003099;6.343750
0.014228;6.343750
0.045822;6.343750
0.041243;6.359375
0.042891;6.359375
-0.002225;6.359375
-0.025875;6.406250
0.010009;6.406250
0.022930;6.406250
0.008019;6.406250
0.007498;6.421875
0.001111;6.421875
-0.081546;6.421875
-0.056159;6.437500
-0.050729;6.437500
-0.059360;6.437500
0.030567;6.437500
0.074364;6.468750
0.110808;6.468750
0.036284;6.468750
0.000285;6.468750
-0.002032;6.468750
-0.048628;6.468750
-0.013114;6.468750
0.032019;6.500000
0.031892;6.500000
0.002527;6.500000
0.012749;6.500000
-0.060504;6.515625
-0.084671;6.515625
-0.082889;6.515625
-0.000527;6.531250
0.008099;6.531250
0.055528;6.531250
0.083087;6.531250
0.015748;6.562500
-0.005981;6.562500
-0.024940;6.562500
-0.006571;6.578125
0.005664;6.578125
-0.007252;6.578125
0.060998;6.578125
0.051517;6.578125
0.011748;6.578125
-0.059157;6.578125
-0.009668;6.578125
-0.022162;6.578125
-0.050073;6.578125
-0.032528;6.609375
-0.029273;6.609375
0.057137;6.609375
0.005570;6.609375
-0.013525;6.609375
0.016737;6.609375
-0.012176;6.609375
0.009193;6.609375
0.056156;6.625000
0.059899;6.625000
0.007380;6.625000
-0.011539;6.656250
-0.082163;6.656250
0.010882;6.656250
-0.025159;6.656250
-0.044002;6.671875
-0.024930;6.671875
-0.018854;6.671875
0.060765;6.703125
0.040748;6.703125
0.032452;6.703125
0.000706;6.718750
-0.023721;6.718750
-0.019979;6.718750
0.000838;6.718750
0.030258;6.750000
0.005462;6.750000
-0.002958;6.750000
-0.020740;6.750000
-0.002732;6.765625
0.020723;6.765625
0.003396;6.765625
0.012240;6.812500
-0.005833;6.812500
-0.016459;6.812500
-0.036178;6.812500
-0.039661;6.812500
-0.027749;6.812500
0.004143;6.812500
0.065084;6.843750
0.055757;6.843750
0.032054;6.843750
-0.025066;6.843750
-0.063164;6.843750
0.006874;6.843750
-0.061290;6.843750
-0.025588;6.875000
0.061552;6.875000
0.037239;6.875000
0.089974;6.875000
0.025587;6.875000
0.000096;6.875000
-0.036288;6.875000
-0.060085;6.890625
-0.029289;6.890625
-0.026204;6.890625
-0.007156;6.921875
0.023176;6.921875
0.025543;6.921875
-0.054484;6.968750
0.007292;6.968750
0.008846;6.968750
-0.041290;6.968750
0.041020;6.984375
0.032146;6.984375
0.067158;6.984375
-0.006852;7.031250
-0.010185;7.031250
-0.019431;7.031250
-0.049204;7.031250
0.005637;7.046875
0.017722;7.046875
0.008689;7.046875
0.015155;7.093750
0.018745;7.093750
-0.072832;7.093750
0.007446;7.093750
-0.024768;7.109375
0.013000;7.109375
0.012903;7.109375
0.042295;7.109375
-0.002300;7.109375
-0.038918;7.109375
-0.034254;7.156250
0.002203;7.156250
-0.027622;7.156250
0.040975;7.156250
0.074879;7.156250
0.048956;7.156250
0.003268;7.156250
-0.004591;7.171875
-0.035549;7.171875
-0.026175;7.171875
0.020880;7.171875
0.020350;7.218750
0.000229;7.218750
-0.025110;7.218750
-0.062829;7.218750
-0.140387;7.250000
-0.123007;7.250000
-0.043050;7.250000
0.094027;7.296875
0.143492;7.296875
0.140447;7.296875
0.156695;7.312500
0.099241;7.312500
0.037419;7.312500
-0.093068;7.312500
-0.086469;7.359375
-0.156542;7.359375
-0.083770;7.359375
-0.097863;7.359375
0.015478;7.375000
0.026436;7.375000
0.010011;7.375000
0.042722;7.390625
0.032912;7.390625
0.041749;7.390625
0.031729;7.390625
0.041712;7.406250
0.022372;7.406250
-0.003466;7.406250
-0.027982;7.437500
-0.065564;7.437500
0.000307;7.437500
-0.040213;7.437500
0.000805;7.437500
0.031534;7.468750
-0.005589;7.468750
0.035255;7.468750
-0.019028;7.468750
-0.004315;7.468750
0.008514;7.500000
-0.026760;7.500000
0.035850;7.500000
0.026642;7.500000
0.025814;7.500000
-0.011476;7.515625
-0.045183;7.515625
-0.031778;7.515625
-0.043786;7.515625
0.025027;7.515625
0.029226;7.531250
0.040604;7.531250
0.001909;7.531250
-0.017109;7.531250
0.008242;7.562500
-0.011105;7.562500
0.004383;7.562500
-0.003312;7.562500
-0.025922;7.609375
-0.046794;7.609375
-0.008602;7.609375
0.014676;7.656250
0.003983;7.656250
0.019105;7.656250
0.080363;7.656250
0.064652;7.656250
0.029341;7.687500
-0.008070;7.687500
-0.058272;7.687500
-0.041156;7.687500
-0.055937;7.687500
-0.041378;7.703125
-0.020451;7.703125
-0.020219;7.703125
0.011051;7.703125
0.026229;7.734375
0.024668;7.734375
0.037719;7.734375
0.016513;7.734375
0.064264;7.734375
0.002333;7.781250
0.017287;7.781250
-0.004288;7.781250
-0.011100;7.781250
-0.040321;7.781250
-0.067115;7.796875
-0.031649;7.796875
-0.001412;7.796875
0.002415;7.843750
0.015145;7.843750
0.032886;7.843750
-0.009557;7.843750
0.005946;7.843750
0.035913;7.843750
-0.023673;7.843750
0.014330;7.843750
-0.012310;7.859375
0.015723;7.859375
-0.007337;7.859375
0.027692;7.906250
-0.010391;7.906250
-0.002021;7.906250
-0.022579;7.906250
-0.007275;7.937500
-0.009674;7.937500
-0.031489;7.937500
0.032234;7.937500
0.063111;7.968750
0.016794;7.968750
-0.057728;7.968750
-0.026488;8.000000
0.004350;8.000000
-0.022170;8.000000
-0.016407;8.000000
0.031387;8.031250
0.062019;8.031250
0.031037;8.031250
0.010134;8.031250
0.000574;8.031250
-0.028747;8.031250
-0.090522;8.031250
-0.044739;8.031250
-0.046388;8.046875
0.005256;8.046875
0.029361;8.046875
0.007448;8.062500
0.097247;8.062500
0.069492;8.062500
0.039511;8.062500
-0.009669;8.078125
-0.026678;8.078125
0.002761;8.078125
-0.095960;8.125000
-0.092846;8.125000
-0.033507;8.125000
0.061769;8.125000
0.051483;8.171875
0.096147;8.171875
0.078577;8.171875
0.028617;8.171875
-0.024807;8.187500
-0.106947;8.187500
-0.096221;8.187500
-0.052306;8.203125
-0.043295;8.203125
-0.018831;8.203125
0.047433;8.203125
0.055911;8.250000
0.049581;8.250000
0.028414;8.250000
0.024489;8.250000
0.049712;8.265625
0.016024;8.265625
-0.013371;8.265625
-0.000039;8.281250
-0.034929;8.281250
-0.053867;8.281250
-0.088095;8.281250
0.000721;8.281250
0.000247;8.281250
0.040306;8.281250
0.019184;8.281250
0.022210;8.296875
0.010699;8.296875
-0.044978;8.296875
-0.010215;8.312500
0.006127;8.312500
0.008319;8.312500
0.023692;8.312500
0.070298;8.328125
0.032878;8.328125
-0.006746;8.328125
-0.023922;8.375000
-0.041884;8.375000
-0.000636;8.375000
-0.006469;8.375000
-0.033976;8.375000
-0.018718;8.375000
-0.028554;8.375000
0.039926;8.375000
0.003120;8.390625
-0.020189;8.390625
-0.012942;8.390625
-0.009037;8.406250
0.029764;8.406250
0.045452;8.406250
0.031805;8.406250
-0.011280;8.421875
-0.065605;8.421875
0.027758;8.421875
0.021406;8.468750
0.008966;8.468750
-0.000953;8.468750
0.032021;8.468750
0.063435;8.468750
-0.021911;8.468750
-0.057274;8.468750
-0.076036;8.468750
-0.044005;8.484375
-0.036386;8.484375
0.024281;8.484375
0.040533;8.531250
0.035764;8.531250
0.034697;8.531250
0.005464;8.531250
-0.013411;8.546875
0.046147;8.546875
-0.012018;8.546875
0.046769;8.546875
-0.019406;8.546875
-0.026812;8.546875
-0.073653;8.546875
-0.103971;8.562500
-0.041220;8.562500
0.041632;8.562500
0.054997;8.578125
0.073123;8.578125
0.094290;8.578125
0.046055;8.578125
0.000557;8.593750
-0.080617;8.593750
-0.034102;8.593750
-0.037169;8.593750
-0.022564;8.609375
-0.024283;8.609375
0.039082;8.609375
0.029975;8.625000
0.006564;8.625000
0.001179;8.625000
-0.021634;8.625000
-0.008193;8.625000
-0.015584;8.625000
-0.013924;8.625000
0.028075;8.671875
-0.012665;8.671875
0.020288;8.671875
-0.004587;8.671875
0.017741;8.687500
0.027711;8.687500
0.037437;8.687500
-0.025022;8.703125
0.007850;8.703125
-0.020865;8.703125
-0.028872;8.703125
-0.062854;8.718750
-0.042743;8.718750
0.035866;8.718750
0.043605;8.718750
0.042751;8.718750
0.056138;8.734375
0.003507;8.734375
-0.034135;8.734375
-0.055179;8.734375
-0.049945;8.750000
-0.003115;8.750000
0.013306;8.750000
0.038363;8.750000
0.018316;8.750000
0.006262;8.765625
0.002996;8.765625
-0.013230;8.765625
0.025945;8.765625
0.013357;8.765625
0.004033;8.781250
-0.014089;8.781250
-0.013150;8.781250
0.001531;8.828125
-0.069817;8.828125
-0.003877;8.828125
0.009411;8.828125
-0.002648;8.843750
0.013220;8.843750
0.022503;8.843750
0.011363;8.890625
-0.004301;8.890625
-0.028687;8.890625
0.011393;8.906250
0.014096;8.906250
0.037538;8.906250
0.070943;8.906250
0.006792;8.937500
-0.051500;8.937500
-0.060273;8.937500
-0.090625;8.937500
0.027136;8.984375
0.002425;8.984375
0.030624;8.984375
0.021799;8.984375
0.049849;9.000000
0.051677;9.000000
-0.002080;9.000000
-0.047549;9.000000
-0.041628;9.000000
-0.038573;9.015625
-0.018207;9.015625
-0.007560;9.015625
0.056866;9.015625
0.069530;9.031250
-0.006196;9.031250
-0.092044;9.031250
-0.019107;9.031250
-0.001741;9.031250
0.015402;9.031250
0.030490;9.031250
0.015016;9.046875
0.013223;9.046875
-0.049258;9.046875
0.019294;9.093750
0.002672;9.093750
0.009684;9.093750
0.018814;9.093750
0.101042;9.109375
0.036078;9.109375
-0.010236;9.109375
-0.056554;9.156250
-0.153805;9.156250
-0.017609;9.156250
-0.059829;9.156250
0.012771;9.171875
0.038137;9.171875
0.070640;9.171875
0.059612;9.203125
0.007428;9.203125
0.006117;9.203125
-0.020899;9.203125
-0.026521;9.218750
0.004024;9.218750
0.023142;9.218750
0.013688;9.218750
0.006150;9.218750
-0.018967;9.218750
-0.050334;9.265625
-0.046052;9.265625
-0.002280;9.265625
0.005863;9.265625
0.003508;9.265625
0.052876;9.265625
0.026070;9.265625
-0.009132;9.312500
-0.006108;9.312500
0.000266;9.312500
0.016631;9.312500
-0.004644;9.312500
0.032433;9.328125
0.046462;9.328125
-0.001393;9.328125
-0.069930;9.328125
-0.087221;9.375000
-0.073598;9.375000
-0.015289;9.375000
0.018051;9.375000
0.086211;9.375000
0.107863;9.390625
0.046842;9.390625
0.005575;9.390625
-0.013138;9.390625
-0.047566;9.421875
-0.048849;9.421875
-0.038843;9.421875
-0.000912;9.421875
-0.012516;9.421875
0.006744;9.437500
-0.000592;9.437500
-0.008839;9.437500
0.024459;9.437500
-0.007547;9.453125
0.033023;9.453125
0.036977;9.453125
0.048541;9.500000
0.027224;9.500000
-0.033756;9.500000
-0.042239;9.500000
-0.023850;9.515625
-0.056407;9.515625
-0.019737;9.515625
-0.013067;9.515625
0.018267;9.515625
-0.011238;9.546875
-0.015976;9.546875
0.047348;9.546875
0.037526;9.546875
0.014132;9.546875
0.047894;9.562500
0.025529;9.562500
0.032214;9.562500
-0.030880;9.609375
-0.038679;9.609375
-0.028911;9.609375
-0.046683;9.609375
-0.014362;9.625000
-0.008800;9.625000
-0.014593;9.625000
-0.001915;9.625000
0.019755;9.656250
-0.005533;9.656250
0.020388;9.656250
0.043493;9.703125
0.009209;9.703125
0.041246;9.703125
0.001572;9.703125
-0.005613;9.703125
-0.035486;9.703125
-0.032996;9.703125
-0.010017;9.750000
-0.009851;9.750000
-0.003383;9.750000
0.035011;9.750000
0.020457;9.750000
0.019257;9.781250
-0.020616;9.781250
-0.040451;9.781250
-0.006733;9.781250
-0.015098;9.781250
-0.005557;9.796875
0.003504;9.796875
0.034211;9.796875
0.037679;9.796875
0.018822;9.828125
-0.038383;9.828125
-0.015717;9.828125
-0.011303;9.828125
0.025808;9.828125
0.028662;9.859375
0.001987;9.859375
-0.004349;9.859375
-0.029859;9.859375
-0.035942;9.859375
-0.041538;9.875000
0.067055;9.875000
0.012035;9.875000
0.038974;9.875000
-0.017082;9.906250
-0.019453;9.906250
-0.040288;9.906250
-0.029082;9.906250
0.015607;9.906250
0.040372;9.937500
0.027108;9.937500
0.010492;9.937500
0.023624;9.984375
-0.012445;9.984375
-0.013584;9.984375
0.004485;9.984375
-0.045365;10.000000
-0.043141;10.000000
0.009220;10.000000
0.055893;10.015625
0.001253;10.015625
-0.052607;10.015625
-0.045252;10.015625
-0.000528;10.062500
0.030480;10.062500
0.032885;10.062500
0.062808;10.062500
0.052899;10.078125
0.002895;10.078125
-0.022187;10.078125
-0.044382;10.125000
-0.028962;10.125000
-0.007692;10.125000
0.018346;10.125000
0.001343;10.140625
-0.017953;10.140625
0.011623;10.140625
-0.008640;10.187500
-0.027898;10.187500
-0.056905;10.187500
-0.001802;10.187500
0.018818;10.187500
0.037019;10.187500
0.071374;10.187500
0.077542;10.187500
-0.007125;10.203125
-0.084282;10.203125
0.002594;10.203125
-0.052853;10.250000
-0.026845;10.250000
0.032634;10.250000
0.046976;10.250000
0.029862;10.250000
-0.034197;10.250000
-0.078130;10.250000
-0.038262;10.296875
-0.016928;10.296875
0.037273;10.296875
0.084841;10.296875
0.043235;10.312500
0.033041;10.312500
-0.007818;10.312500
-0.052035;10.328125
-0.029796;10.328125
-0.005332;10.328125
-0.018643;10.328125
0.030549;10.328125
0.015567;10.359375
-0.017013;10.359375
-0.010679;10.359375
-0.007098;10.359375
0.005121;10.390625
0.014764;10.390625
0.010506;10.390625
0.022467;10.390625
-0.014556;10.390625
-0.022706;10.421875
-0.043288;10.421875
0.017009;10.421875
-0.018671;10.421875
-0.013480;10.421875
0.012742;10.453125
0.010373;10.453125
0.054722;10.453125
0.044478;10.453125
0.035825;10.453125
-0.022841;10.468750
-0.051204;10.468750
-0.080310;10.468750
-0.013471;10.468750
-0.005616;10.468750
0.012462;10.484375
0.046057;10.484375
0.000713;10.484375
0.045958;10.484375
0.062450;10.515625
-0.037081;10.515625
-0.024731;10.515625
-0.010371;10.515625
0.018912;10.515625
-0.005765;10.531250
-0.051001;10.531250
-0.024011;10.531250
0.009486;10.531250
-0.029434;10.531250
0.004988;10.546875
-0.015080;10.546875
0.003798;10.546875
0.001259;10.546875
0.014125;10.546875
0.027455;10.578125
0.061783;10.578125
0.092854;10.578125
0.045890;10.578125
-0.003326;10.578125
-0.073737;10.593750
-0.083452;10.593750
-0.093669;10.593750
-0.049876;10.593750
0.006839;10.625000
0.000694;10.625000
0.051534;10.625000
0.064942;10.625000
0.082903;10.625000
-0.003489;10.656250
-0.064366;10.656250
0.018437;10.656250
-0.026844;10.656250
-0.009448;10.703125
-0.008329;10.703125
0.039385;10.703125
0.028323;10.703125
-0.057007;10.703125
-0.066961;10.703125
-0.029484;10.703125
-0.023208;10.703125
0.036097;10.734375
0.077588;10.734375
0.103388;10.734375
0.046669;10.781250
-0.011030;10.781250
-0.090569;10.781250
-0.004250;10.781250
-0.026593;10.796875
-0.000803;10.796875
-0.022084;10.796875
-0.003285;10.828125
-0.004791;10.828125
-0.055033;10.828125
-0.051324;10.828125
0.043617;10.875000
0.037044;10.875000
0.042379;10.875000
0.074019;10.890625
0.063014;10.890625
0.004197;10.890625
-0.082801;10.890625
-0.086255;10.890625
-0.051231;10.890625
-0.011017;10.890625
0.009215;10.890625
0.020893;10.906250
0.066040;10.906250
0.062060;10.906250
0.033021;10.953125
-0.028612;10.953125
-0.044411;10.953125
-0.007907;10.953125
-0.013279;10.953125
0.016648;10.953125
0.029015;10.953125
-0.019345;10.968750
-0.088930;10.968750
0.036804;10.968750
0.003512;10.968750
-0.010504;10.984375
0.004439;11.000000
0.017358;11.000000
0.069879;11.000000
-0.065629;11.000000
-0.086493;11.015625
-0.026484;11.015625
-0.020994;11.015625
0.060006;11.031250
0.063576;11.031250
0.072289;11.031250
0.072313;11.078125
0.060193;11.078125
0.014969;11.078125
-0.055599;11.078125
-0.100886;11.093750
-0.062901;11.093750
-0.067734;11.093750
-0.033701;11.109375
-0.023241;11.109375
0.015770;11.109375
0.029088;11.109375
0.016361;11.109375
0.078959;11.109375
0.047823;11.109375
0.040384;11.109375
0.026127;11.140625
0.014010;11.140625
-0.026850;11.140625
-0.080197;11.140625
-0.040691;11.140625
-0.028971;11.140625
-0.014969;11.140625
-0.007554;11.156250
0.038837;11.156250
0.004580;11.156250
-0.009818;11.156250
-0.037840;11.156250
-0.006776;11.156250
0.038782;11.156250
0.010100;11.156250
0.082566;11.156250
0.052538;11.156250
0.042047;11.203125
-0.038984;11.203125
-0.032639;11.203125
-0.025788;11.203125
-0.098056;11.218750
-0.039552;11.218750
0.027670;11.218750
0.046058;11.265625
0.023711;11.265625
-0.007430;11.265625
0.018851;11.265625
-0.030556;11.281250
-0.039512;11.281250
-0.011378;11.281250
0.019277;11.328125
0.034388;11.328125
0.049865;11.328125
0.011994;11.328125
-0.058372;11.328125
0.036175;11.375000
0.001661;11.375000
-0.007763;11.375000
-0.031420;11.375000
0.014121;11.375000
0.020822;11.390625
-0.012609;11.390625
-0.049374;11.390625
-0.021192;11.390625
-0.013461;11.390625
0.043806;11.421875
0.047507;11.421875
0.030900;11.421875
0.000717;11.421875
0.020709;11.453125
-0.004346;11.453125
-0.032849;11.453125
-0.097294;11.453125
-0.038248;11.453125
-0.038427;11.484375
0.047896;11.484375
0.042886;11.484375
0.035912;11.484375
0.039221;11.484375
0.067524;11.500000
0.014597;11.500000
0.005036;11.500000
-0.037465;11.500000
-0.045748;11.500000
-0.054109;11.531250
-0.067542;11.531250
-0.036625;11.531250
0.030384;11.531250
0.017382;11.546875
0.095342;11.546875
0.032474;11.546875
0.028177;11.546875
-0.018353;11.546875
-0.047936;11.578125
-0.052305;11.578125
-0.011043;11.578125
0.002078;11.578125
0.027897;11.578125
0.069729;11.593750
0.028463;11.593750
-0.010030;11.593750
-0.090314;11.593750
0.010242;11.593750
-0.006361;11.609375
-0.006924;11.609375
0.016202;11.609375
0.007603;11.609375
0.016862;11.609375
-0.032345;11.609375
-0.020732;11.609375
-0.012130;11.656250
0.040265;11.656250
0.033716;11.656250
0.034458;11.656250
0.018116;11.703125
0.021405;11.703125
-0.005159;11.703125
-0.085060;11.703125
-0.081788;11.718750
-0.054391;11.718750
-0.023622;11.718750
0.024717;11.718750
0.069169;11.734375
0.054250;11.734375
0.050017;11.734375
0.030810;11.734375
0.003975;11.750000
0.034926;11.750000
-0.007786;11.750000
-0.039127;11.765625
-0.032622;11.765625
-0.033517;11.765625
-0.013029;11.781250
-0.023424;11.781250
-0.045527;11.781250
0.027558;11.781250
0.006606;11.828125
-0.019058;11.828125
0.010659;11.828125
-0.010254;11.828125
0.031116;11.875000
0.027850;11.875000
0.001246;11.875000
0.047842;11.875000
0.024186;11.890625
0.011672;11.890625
0.017467;11.890625
-0.014801;11.937500
-0.034106;11.937500
-0.071190;11.937500
-0.024653;11.937500
-0.020131;11.937500
0.025970;11.937500
-0.007910;11.937500
0.010955;11.937500
0.016827;11.953125
-0.001975;11.953125
0.006438;11.953125
0.010163;12.000000
0.033279;12.000000
0.036632;12.000000
0.046159;12.000000
0.009561;12.000000
-0.054797;12.000000
-0.097040;12.000000
-0.081636;12.015625
-0.034387;12.015625
-0.001576;12.015625
0.049615;12.015625
0.097140;12.062500
0.080980;12.062500
0.043378;12.062500
0.014279;12.062500
-0.029768;12.062500
-0.014368;12.062500
-0.083638;12.062500
-0.053340;12.078125
-0.046043;12.078125
-0.013183;12.078125
0.019844;12.078125
0.017253;12.078125
0.056725;12.078125
0.067203;12.078125
0.022833;12.093750
0.032758;12.093750
-0.022188;12.093750
-0.043667;12.093750
-0.028806;12.140625
-0.036624;12.140625
-0.043553;12.140625
-0.020950;12.140625
-0.010903;12.171875
0.004790;12.171875
0.039702;12.171875
0.070332;12.187500
0.021453;12.187500
-0.005263;12.187500
0.016684;12.187500
0.039620;12.218750
-0.020116;12.218750
-0.044209;12.218750
-0.043209;12.218750
-0.011900;12.218750
-0.031303;12.218750
0.009116;12.218750
-0.014263;12.265625
-0.012466;12.265625
0.050463;12.265625
0.031969;12.265625
0.071189;12.281250
0.023851;12.281250
-0.001740;12.281250
-0.018667;12.312500
-0.040621;12.312500
-0.025574;12.312500
-0.040199;12.328125
-0.054562;12.328125
-0.027232;12.328125
0.024981;12.328125
-0.003233;12.359375
0.018467;12.359375
0.011676;12.359375
0.064477;12.359375
0.073655;12.359375
0.024929;12.359375
0.031205;12.359375
-0.018239;12.375000
-0.056667;12.375000
-0.059311;12.375000
-0.033365;12.375000
-0.045017;12.421875
0.010154;12.421875
-0.000188;12.421875
0.029112;12.421875
-0.007443;12.421875
-0.008608;12.421875
0.026034;12.421875
0.006684;12.437500
0.039050;12.437500
0.034826;12.437500
-0.005619;12.437500
-0.005478;12.437500
0.016091;12.437500
-0.016225;12.437500
-0.029340;12.437500
-0.055938;12.453125
0.012742;12.453125
-0.003597;12.453125
0.010142;12.468750
0.013641;12.468750
-0.014167;12.468750
-0.011060;12.484375
-0.043351;12.484375
0.071799;12.484375
0.015682;12.484375
0.029880;12.531250
0.049190;12.531250
0.020265;12.531250
-0.007942;12.531250
-0.064178;12.546875
-0.051655;12.546875
-0.025329;12.546875
-0.021351;12.578125
0.016694;12.578125
0.044491;12.578125
-0.016119;12.578125
-0.040524;12.593750
-0.055398;12.593750
-0.024008;12.593750
0.027041;12.609375
0.085675;12.609375
0.053605;12.609375
0.063461;12.609375
0.069200;12.609375
-0.003118;12.609375
-0.015217;12.609375
-0.052049;12.625000
-0.026111;12.625000
-0.053868;12.625000
-0.066041;12.656250
-0.068792;12.656250
-0.064962;12.656250
-0.031923;12.671875
0.019517;12.671875
0.123850;12.671875
0.078598;12.671875
0.075184;12.718750
0.091517;12.718750
0.064052;12.718750
-0.007531;12.718750
-0.087619;12.734375
-0.107840;12.734375
-0.071926;12.734375
-0.071715;12.781250
-0.049438;12.781250
0.027759;12.781250
0.009606;12.781250
0.036658;12.781250
0.042406;12.781250
-0.001357;12.781250
0.085234;12.781250
0.055961;12.796875
0.041544;12.796875
-0.013136;12.796875
0.014652;12.796875
-0.033807;12.796875
-0.062676;12.796875
-0.062459;12.843750
-0.018542;12.843750
-0.046467;12.843750
-0.068022;12.843750
0.014014;12.843750
0.008540;12.843750
0.052013;12.843750
0.050634;12.890625
0.053539;12.890625
0.054285;12.890625
0.029595;12.890625
0.044743;12.906250
-0.026946;12.906250
-0.024604;12.906250
-0.048865;12.953125
-0.050466;12.953125
-0.026828;12.953125
-0.010630;12.968750
-0.028923;12.968750
-0.035414;12.968750
-0.030900;12.968750
-0.000380;13.015625
0.018794;13.015625
0.048905;13.015625
0.067319;13.015625
0.053179;13.015625
0.064685;13.015625
-0.004495;13.015625
0.008344;13.062500
-0.001893;13.062500
-0.042074;13.062500
-0.040814;13.062500
-0.071936;13.062500
0.017215;13.062500
-0.026464;13.062500
-0.048311;13.109375
-0.021840;13.109375
-0.021933;13.109375
0.018254;13.109375
0.026028;13.125000
0.063127;13.125000
0.073463;13.125000
0.096960;13.171875
0.031188;13.171875
0.003932;13.171875
-0.065374;13.171875
-0.094031;13.171875
-0.109373;13.171875
-0.095336;13.171875
0.023058;13.218750
0.047534;13.218750
0.091312;13.218750
0.064359;13.218750
0.028933;13.234375
0.015601;13.234375
-0.010827;13.234375
-0.007075;13.265625
-0.029036;13.265625
-0.063363;13.265625
-0.028591;13.265625
0.002586;13.265625
-0.022475;13.265625
0.023453;13.265625
0.017447;13.312500
0.042134;13.312500
0.028094;13.312500
0.026492;13.312500
-0.005174;13.312500
-0.033289;13.312500
-0.048471;13.312500
-0.037759;13.328125
-0.005656;13.328125
0.010388;13.328125
0.052039;13.328125
0.021428;13.343750
0.042685;13.343750
-0.000541;13.343750
-0.006249;13.390625
-0.036287;13.390625
-0.021246;13.390625
-0.004088;13.390625
-0.012032;13.390625
0.007003;13.390625
-0.016246;13.390625
-0.007323;13.437500
0.032540;13.437500
0.041251;13.437500
-0.027996;13.437500
-0.023430;13.453125
-0.065880;13.453125
-0.035113;13.453125
0.020559;13.500000
0.070817;13.500000
0.071343;13.500000
0.009675;13.546875
0.036726;13.546875
0.005150;13.546875
-0.006011;13.562500
-0.023461;13.562500
-0.013399;13.562500
-0.035687;13.562500
-0.035613;13.578125
-0.019557;13.578125
-0.077278;13.578125
-0.029188;13.625000
0.022332;13.625000
0.036593;13.625000
0.016176;13.687500
0.041536;13.687500
0.040013;13.687500
0.033582;13.703125
0.035741;13.703125
0.045046;13.703125
0.044025;13.703125
-0.033649;13.734375
-0.060192;13.734375
-0.080349;13.734375
-0.100601;13.734375
-0.077959;13.765625
-0.000799;13.765625
-0.002852;13.765625
0.065395;13.765625
0.055980;13.765625
0.122425;13.765625
0.122251;13.765625
0.016043;13.781250
-0.032098;13.781250
-0.076719;13.781250
-0.055229;13.781250
-0.039120;13.781250
-0.037112;13.781250
-0.044013;13.796875
-0.057954;13.796875
-0.026122;13.796875
0.024789;13.796875
0.055505;13.796875
0.097847;13.796875
0.096333;13.796875
0.028276;13.796875
0.048223;13.812500
-0.052712;13.812500
-0.095489;13.812500
-0.116767;13.859375
-0.066380;13.859375
0.031931;13.859375
0.044445;13.859375
0.074845;13.859375
0.044200;13.859375
0.009801;13.859375
-0.018296;13.859375
-0.027164;13.875000
-0.020978;13.875000
-0.012615;13.875000
0.019764;13.875000
0.045024;13.890625
0.009389;13.890625
0.008870;13.890625
-0.026103;13.937500
-0.019903;13.937500
-0.042933;13.937500
-0.037972;13.937500
-0.055128;13.953125
0.016231;13.953125
0.007905;13.953125
0.062019;14.000000
0.061900;14.000000
0.034852;14.000000
0.038420;14.000000
0.004380;14.015625
-0.025045;14.015625
-0.038521;14.015625
-0.026329;14.015625
-0.023021;14.015625
-0.049884;14.031250
-0.008947;14.031250
0.013349;14.031250
0.051589;14.031250
0.009224;14.062500
0.005159;14.062500
0.016941;14.062500
-0.010617;14.062500
-0.063867;14.062500
-0.021388;14.109375
-0.020753;14.109375
0.032945;14.109375
0.007636;14.109375
0.063034;14.109375
0.066569;14.156250
0.010057;14.156250
-0.035340;14.156250
-0.020531;14.156250
0.007817;14.171875
0.017208;14.171875
0.040265;14.171875
-0.035823;14.218750
-0.077646;14.218750
-0.089201;14.218750
-0.069001;14.218750
-0.014285;14.218750
0.042127;14.218750
0.076305;14.218750
0.074685;14.218750
0.080170;14.234375
0.080462;14.234375
0.009711;14.234375
-0.064605;14.281250
-0.084915;14.281250
-0.054740;14.281250
-0.079450;14.281250
-0.034522;14.296875
0.044088;14.296875
0.066670;14.296875
0.023559;14.343750
-0.013760;14.343750
0.020650;14.343750
0.014266;14.343750
0.035321;14.359375
0.013366;14.359375
0.021731;14.359375
0.006167;14.375000
-0.058542;14.375000
-0.045363;14.375000
-0.042032;14.390625
-0.019139;14.390625
0.017669;14.390625
0.000591;14.390625
0.019533;14.406250
0.003318;14.406250
0.007459;14.406250
-0.018117;14.453125
0.034225;14.453125
0.055417;14.453125
0.029907;14.453125
-0.017789;14.453125
0.039513;14.453125
0.005019;14.453125
-0.032741;14.500000
-0.109376;14.500000
-0.065573;14.500000
-0.063196;14.500000
-0.040398;14.515625
0.041377;14.515625
0.092782;14.515625
0.087672;14.562500
0.064919;14.562500
0.066755;14.562500
0.041971;14.562500
-0.044596;14.562500
-0.013667;14.562500
-0.065230;14.562500
-0.033906;14.578125
-0.067701;14.578125
-0.044101;14.578125
-0.025982;14.578125
0.020673;14.609375
0.043338;14.609375
0.010354;14.609375
-0.028826;14.609375
-0.031144;14.625000
-0.028322;14.625000
0.015334;14.625000
0.030850;14.640625
0.087665;14.640625
0.082978;14.640625
0.090039;14.640625
0.049418;14.671875
-0.005047;14.671875
-0.092205;14.671875
-0.121129;14.687500
-0.106541;14.687500
-0.063931;14.687500
-0.020916;14.687500
0.051752;14.734375
0.027470;14.734375
0.054705;14.734375
0.024673;14.734375
-0.004224;14.750000
0.034268;14.750000
0.015896;14.750000
0.022722;14.812500
0.006815;14.812500
0.038463;14.812500
0.007048;14.812500
-0.041680;14.828125
-0.075025;14.828125
-0.037904;14.828125
-0.010947;14.859375
-0.004279;14.859375
-0.012054;14.859375
0.038619;14.859375
0.020629;14.906250
0.002197;14.906250
-0.051374;14.906250
0.034296;14.921875
0.024116;14.921875
0.066819;14.921875
0.013523;14.921875
0.035877;14.921875
-0.012140;14.921875
-0.070599;14.921875
-0.059568;14.937500
-0.006033;14.937500
0.000070;14.937500
0.020110;14.937500
-0.004371;14.968750
0.005190;14.968750
-0.006972;14.968750
0.013735;14.968750
-0.025826;14.984375
0.011636;14.984375
0.018037;14.984375
0.002346;14.984375
0.034684;14.984375
0.040143;14.984375
0.010716;15.000000
-0.064823;15.000000
-0.047860;15.000000
0.006281;15.000000
-0.008505;15.046875
0.005321;15.046875
0.007214;15.046875
0.052418;15.046875
-0.000576;15.062500
-0.025242;15.062500
-0.007200;15.062500
-0.043177;15.109375
0.039132;15.109375
-0.014446;15.109375
0.027825;15.109375
0.046856;15.109375
-0.008149;15.109375
0.001190;15.109375
-0.040736;15.125000
-0.027522;15.125000
-0.012272;15.125000
-0.029918;15.125000
0.014414;15.140625
0.014341;15.140625
0.012662;15.140625
-0.009153;15.140625
0.034263;15.156250
0.031978;15.156250
0.038553;15.156250
-0.020427;15.156250
0.027802;15.156250
0.013967;15.156250
-0.030640;15.171875
-0.080586;15.171875
-0.070820;15.171875
-0.031913;15.171875
0.008881;15.218750
0.026074;15.218750
0.027410;15.218750
0.029017;15.218750
0.069272;15.234375
0.022252;15.234375
0.013794;15.234375
-0.035116;15.250000
0.014067;15.250000
-0.062943;15.250000
-0.011513;15.265625
0.000507;15.265625
0.013279;15.265625
-0.010477;15.265625
0.035559;15.281250
0.021561;15.281250
0.004374;15.281250
-0.031954;15.328125
-0.037479;15.328125
-0.016849;15.328125
-0.004223;15.328125
0.021112;15.343750
0.027426;15.343750
0.049840;15.343750
0.034700;15.390625
-0.025712;15.390625
-0.081292;15.390625
-0.106587;15.406250
-0.091334;15.406250
-0.006071;15.406250
0.073974;15.406250
0.148674;15.406250
0.121313;15.406250
0.098410;15.406250
0.014725;15.421875
-0.056708;15.421875
-0.084827;15.421875
-0.110500;15.421875
-0.025152;15.468750
-0.013207;15.468750
-0.009461;15.468750
0.023783;15.515625
0.032163;15.515625
0.017059;15.515625
-0.061174;15.515625
-0.070687;15.531250
0.024370;15.531250
0.032493;15.531250
0.015052;15.578125
0.072296;15.578125
0.042757;15.578125
0.023191;15.578125
-0.009034;15.578125
-0.018230;15.578125
0.000964;15.578125
-0.065853;15.593750
-0.015643;15.593750
0.017468;15.593750
0.020085;15.593750
-0.022899;15.640625
0.000386;15.640625
-0.014894;15.640625
0.010687;15.640625
-0.036398;15.640625
-0.004081;15.640625
-0.016253;15.640625
-0.002398;15.656250
0.021381;15.656250
0.048729;15.656250
0.057906;15.656250
0.056859;15.656250
0.009535;15.656250
-0.028318;15.656250
-0.051941;15.656250
-0.033288;15.671875
-0.049329;15.671875
-0.037682;15.671875
-0.012151;15.671875
0.032397;15.671875
-0.005483;15.671875
0.026281;15.718750
0.019401;15.718750
0.016488;15.718750
0.012458;15.765625
-0.006438;15.765625
0.011163;15.765625
0.032856;15.781250
0.037678;15.781250
0.022976;15.781250
-0.027265;15.781250
-0.077861;15.828125
-0.079289;15.828125
-0.059282;15.828125
-0.002045;15.828125
0.040610;15.843750
0.065027;15.843750
0.033413;15.843750
0.016163;15.890625
0.012191;15.890625
-0.014505;15.890625
0.000871;15.890625
-0.007759;15.906250
0.027817;15.906250
0.040306;15.906250
0.008735;15.953125
-0.003504;15.953125
-0.044311;15.953125
-0.064249;15.953125
-0.050909;15.984375
-0.014915;15.984375
0.003869;15.984375
0.008820;15.984375
-0.001404;16.000000
0.061773;16.000000
0.045174;16.000000
0.022940;16.000000
-0.014715;16.000000
-0.037595;16.000000
0.005292;16.015625
0.020360;16.015625
-0.000955;16.015625
0.012110;16.015625
-0.001697;16.015625
-0.025035;16.015625
-0.019451;16.015625
-0.031691;16.031250
-0.007020;16.031250
0.038290;16.031250
-0.005001;16.031250
0.019496;16.031250
0.000750;16.031250
-0.018294;16.031250
0.071752;16.031250
-0.015221;16.046875
-0.039604;16.046875
-0.081880;16.046875
-0.028434;16.093750
0.028403;16.093750
0.018310;16.093750
0.039855;16.093750
0.056639;16.093750
0.050203;16.093750
0.023063;16.093750
0.035894;16.140625
-0.013653;16.140625
-0.043355;16.140625
-0.098440;16.140625
-0.099149;16.156250
-0.050963;16.156250
0.005036;16.156250
0.040009;16.203125
0.068645;16.203125
0.054038;16.203125
0.076402;16.203125
-0.004611;16.218750
0.000693;16.218750
-0.011767;16.218750
-0.029303;16.265625
-0.038642;16.265625
-0.030888;16.265625
-0.013436;16.265625
-0.033454;16.265625
-0.032742;16.265625
-0.004376;16.265625
0.038211;16.281250
0.091599;16.281250
0.063048;16.281250
0.055791;16.281250
0.034693;16.328125
-0.003834;16.328125
-0.088683;16.328125
-0.108915;16.328125
-0.061066;16.343750
-0.013605;16.343750
-0.012877;16.343750
0.041657;16.390625
0.069501;16.390625
0.020398;16.390625
-0.004630;16.406250
-0.014115;16.406250
0.002015;16.406250
0.004887;16.406250
0.001130;16.406250
0.008762;16.406250
0.040189;16.406250
-0.001561;16.406250
-0.022399;16.421875
-0.048392;16.421875
-0.012076;16.421875
0.035210;16.421875
0.031156;16.421875
0.034675;16.421875
-0.001946;16.437500
-0.072851;16.437500
-0.107834;16.437500
-0.046154;16.437500
-0.025009;16.484375
0.084160;16.484375
0.066509;16.484375
0.085239;16.484375
0.133177;16.500000
0.045939;16.500000
-0.034932;16.500000
-0.076558;16.546875
-0.048403;16.546875
-0.059228;16.546875
-0.099006;16.546875
-0.069774;16.546875
-0.013735;16.546875
-0.011302;16.546875
0.025055;16.546875
0.096051;16.562500
0.060574;16.562500
0.080865;16.562500
0.043284;16.578125
0.054491;16.578125
0.023482;16.578125
-0.052835;16.625000
-0.083526;16.625000
-0.113464;16.625000
-0.051463;16.625000
-0.016358;16.671875
0.000825;16.671875
0.022009;16.671875
0.048077;16.687500
0.029491;16.687500
-0.011995;16.687500
0.026915;16.687500
0.009731;16.734375
0.032855;16.734375
0.029442;16.734375
0.036050;16.734375
-0.009067;16.750000
-0.039794;16.750000
-0.087428;16.750000
-0.022863;16.796875
0.015113;16.796875
0.002635;16.796875
0.032542;16.796875
-0.005965;16.796875
-0.005107;16.796875
-0.026660;16.796875
0.002362;16.812500
-0.001454;16.812500
-0.001667;16.812500
0.026080;16.812500
0.024078;16.828125
0.062964;16.828125
0.026978;16.828125
0.005309;16.875000
-0.049180;16.875000
-0.054822;16.875000
-0.049386;16.875000
0.041275;16.890625
0.025846;16.890625
-0.003362;16.890625
-0.022579;16.937500
-0.089120;16.937500
-0.026775;16.937500
-0.012026;16.937500
0.018022;16.953125
0.097964;16.953125
0.073728;16.953125
0.094022;17.000000
0.051673;17.000000
-0.032605;17.000000
-0.071211;17.000000
-0.085833;17.031250
-0.039975;17.031250
-0.029433;17.031250
-0.028659;17.046875
-0.001161;17.046875
0.029971;17.046875
0.006937;17.046875
0.005005;17.093750
0.034085;17.093750
0.001057;17.093750
0.023330;17.093750
0.025591;17.109375
0.043116;17.109375
0.007088;17.109375
-0.056568;17.156250
-0.031570;17.156250
-0.037208;17.156250
-0.000171;17.156250
0.002063;17.156250
0.019006;17.156250
0.000102;17.156250
0.043341;17.171875
0.025396;17.171875
-0.013859;17.171875
-0.025676;17.171875
-0.014978;17.218750
0.000554;17.218750
-0.017899;17.218750
-0.011432;17.218750
-0.021414;17.234375
-0.011617;17.234375
0.030183;17.234375
0.043755;17.281250
0.077108;17.281250
-0.009189;17.281250
0.024973;17.281250
-0.041882;17.296875
-0.029433;17.296875
-0.090876;17.296875
-0.017460;17.343750
-0.028868;17.343750
0.022928;17.343750
0.027971;17.343750
0.086497;17.343750
0.046479;17.343750
-0.012527;17.343750
-0.019894;17.375000
-0.007529;17.375000
-0.016604;17.375000
-0.019361;17.375000
-0.001463;17.390625
-0.008433;17.390625
-0.001669;17.390625
0.000581;17.406250
-0.025842;17.406250
-0.009597;17.406250
-0.008519;17.406250
-0.003321;17.453125
0.020806;17.453125
0.073850;17.453125
0.024326;17.453125
-0.002961;17.484375
-0.030138;17.484375
0.003882;17.484375
0.010912;17.531250
-0.033790;17.531250
0.006416;17.531250
-0.013839;17.531250
0.004004;17.546875
-0.001011;17.546875
-0.067487;17.546875
-0.048316;17.593750
-0.025660;17.593750
0.045131;17.593750
0.061705;17.593750
0.064071;17.609375
0.065302;17.609375
-0.000011;17.609375
0.036306;17.656250
0.028132;17.656250
-0.022087;17.656250
-0.037520;17.656250
-0.111585;17.671875
-0.124701;17.671875
-0.107303;17.671875
-0.042509;17.718750
0.015929;17.718750
0.110167;17.718750
0.143303;17.718750
0.145330;17.734375
0.073484;17.734375
0.085012;17.734375
-0.005602;17.781250
-0.112074;17.781250
-0.144984;17.781250
-0.091203;17.796875
-0.063183;17.796875
-0.045732;17.796875
0.012626;17.796875
0.069534;17.843750
0.052537;17.843750
0.011915;17.843750
0.037182;17.843750
0.000809;17.859375
-0.011514;17.859375
0.007806;17.859375
0.008709;17.859375
0.051483;17.859375
0.014832;17.859375
-0.017003;17.859375
-0.029567;17.875000
-0.054464;17.875000
-0.028990;17.875000
0.006847;17.921875
0.005680;17.921875
-0.000823;17.921875
0.003350;17.921875
-0.030554;17.953125
0.043114;17.953125
0.027597;17.953125
0.024495;18.000000
0.017212;18.000000
0.024095;18.000000
0.048788;18.000000
-0.054197;18.000000
-0.070766;18.000000
-0.083224;18.000000
-0.031464;18.046875
-0.009483;18.046875
0.051637;18.046875
0.027597;18.046875
0.040162;18.062500
0.045086;18.062500
0.015033;18.062500
-0.026072;18.078125
0.008428;18.078125
0.008286;18.078125
0.023324;18.078125
-0.019136;18.093750
-0.013195;18.093750
-0.036779;18.093750
-0.035436;18.140625
0.008499;18.140625
-0.006008;18.140625
-0.003343;18.140625
-0.000096;18.140625
0.011279;18.140625
0.017138;18.140625
-0.023093;18.140625
0.023924;18.156250
0.007140;18.156250
0.012310;18.156250
0.028235;18.203125
-0.005598;18.203125
0.026976;18.203125
0.024614;18.203125
-0.014217;18.218750
-0.078736;18.218750
-0.056781;18.218750
-0.080648;18.265625
-0.034199;18.265625
0.025147;18.265625
0.066756;18.265625
0.113474;18.281250
0.058200;18.281250
0.066445;18.281250
0.022857;18.328125
-0.037672;18.328125
-0.018489;18.328125
-0.070170;18.328125
-0.041533;18.343750
-0.051510;18.343750
-0.038379;18.343750
-0.006326;18.343750
-0.042553;18.359375
0.067521;18.359375
0.047143;18.359375
0.013176;18.359375
0.002627;18.359375
-0.001061;18.359375
-0.019031;18.390625
0.051553;18.390625
-0.021261;18.390625
0.019345;18.390625
0.007772;18.437500
0.009301;18.437500
0.018397;18.437500
-0.028198;18.437500
-0.039177;18.453125
-0.006498;18.453125
-0.035130;18.453125
-0.015628;18.500000
0.036614;18.500000
0.015344;18.500000
0.009222;18.515625
0.008809;18.515625
-0.055933;18.515625
0.014417;18.515625
0.014057;18.515625
0.056235;18.515625
0.035138;18.515625
0.003506;18.531250
0.010595;18.531250
-0.036772;18.531250
-0.052238;18.531250
-0.032312;18.531250
-0.008499;18.531250
-0.013626;18.531250
0.011245;18.546875
-0.011570;18.546875
-0.011686;18.546875
-0.031309;18.546875
0.022906;18.546875
0.042944;18.546875
0.081054;18.546875
0.034629;18.562500
0.064930;18.562500
0.091302;18.562500
-0.005913;18.562500
-0.113417;18.562500
-0.201718;18.562500
-0.149597;18.562500
-0.035831;18.578125
0.012516;18.578125
0.098679;18.578125
0.124382;18.578125
0.094668;18.625000
0.103226;18.625000
0.011967;18.625000
0.007235;18.625000
-0.042098;18.640625
-0.068392;18.640625
-0.069098;18.640625
-0.047508;18.671875
-0.010321;18.671875
-0.036327;18.671875
-0.002259;18.671875
0.032698;18.671875
0.031382;18.671875
0.002138;18.671875
-0.008775;18.718750
-0.006071;18.718750
0.010586;18.718750
-0.000085;18.718750
0.046257;18.734375
0.039494;18.734375
0.009228;18.734375
0.015885;18.750000
-0.022893;18.750000
0.018626;18.750000
0.005824;18.750000
-0.062728;18.750000
-0.050074;18.750000
-0.044382;18.750000
0.002022;18.781250
0.038878;18.781250
0.012759;18.781250
0.002003;18.781250
-0.004125;18.781250
-0.011985;18.781250
-0.005752;18.781250
0.033783;18.781250
0.012329;18.796875
0.017300;18.796875
-0.007987;18.796875
0.029247;18.812500
-0.001398;18.812500
-0.021080;18.812500
-0.033591;18.812500
0.044428;18.843750
0.007528;18.843750
-0.016664;18.843750
-0.021085;18.843750
-0.022192;18.859375
-0.033787;18.859375
-0.050124;18.859375
0.018899;18.859375
0.000410;18.890625
0.065868;18.890625
0.052968;18.890625
0.078142;18.890625
0.033564;18.890625
-0.046687;18.906250
-0.049314;18.906250
-0.034738;18.906250
-0.013359;18.906250
0.001452;18.921875
-0.007975;18.921875
-0.023002;18.921875
-0.008852;18.937500
-0.031063;18.937500
-0.052899;18.937500
-0.007181;18.984375
-0.003741;18.984375
0.050378;18.984375
0.054498;18.984375
0.093771;19.031250
0.097814;19.031250
0.029101;19.031250
-0.028287;19.031250
-0.063672;19.046875
-0.061578;19.046875
-0.041098;19.046875
-0.022863;19.093750
-0.047629;19.093750
-0.040041;19.093750
-0.005748;19.125000
-0.032592;19.125000
0.077687;19.125000
0.059608;19.125000
0.086196;19.140625
0.025792;19.187500
-0.003057;19.187500
-0.015479;19.187500
-0.061805;19.203125
-0.035671;19.203125
0.010081;19.203125
-0.012324;19.203125
-0.026082;19.203125
0.024255;19.203125
-0.006948;19.203125
0.019070;19.203125
-0.011828;19.218750
-0.040704;19.218750
0.043723;19.218750
0.015278;19.234375
0.069413;19.234375
-0.005662;19.234375
0.007660;19.281250
0.004430;19.281250
-0.060362;19.281250
-0.049398;19.281250
-0.003590;19.296875
0.015620;19.296875
-0.012506;19.296875
0.020238;19.343750
0.000662;19.343750
-0.007778;19.343750
-0.029743;19.343750
0.009328;19.343750
0.020522;19.343750
0.026234;19.343750
0.021472;19.375000
0.029913;19.375000
0.038298;19.375000
-0.002248;19.375000
-0.037881;19.375000
-0.044953;19.375000
-0.044956;19.375000
-0.008221;19.421875
0.011201;19.421875
0.018051;19.421875
-0.006662;19.421875
-0.014255;19.437500
-0.020284;19.437500
0.012921;19.437500
0.009522;19.484375
0.008604;19.484375
0.063348;19.484375
0.032900;19.484375
0.041844;19.515625
-0.020206;19.515625
-0.057974;19.515625
-0.025873;19.515625
-0.020603;19.546875
-0.011690;19.546875
-0.023641;19.546875
-0.020934;19.546875
0.015567;19.578125
0.003002;19.578125
-0.012027;19.578125
0.053361;19.625000
0.001045;19.625000
0.081911;19.625000
-0.014920;19.625000
0.040348;19.640625
-0.005749;19.640625
-0.044548;19.640625
-0.063193;19.687500
-0.056497;19.687500
-0.005233;19.687500
-0.005422;19.687500
0.040217;19.703125
0.066351;19.703125
0.033671;19.703125
-0.024479;19.765625
-0.071522;19.765625
-0.031513;19.765625
0.013467;19.765625
0.025996;19.781250
0.045306;19.781250
0.031268;19.781250
0.043327;19.812500
-0.002394;19.812500
-0.012870;19.812500
-0.026385;19.812500
-0.017877;19.828125
-0.004230;19.828125
-0.068860;19.828125
-0.055999;19.875000
-0.077817;19.875000
-0.014238;19.875000
0.036697;19.875000
0.102901;19.890625
0.069508;19.890625
0.106467;19.890625
0.089311;19.906250
0.038535;19.906250
-0.068563;19.906250
-0.129945;19.921875
-0.089912;19.921875
-0.088352;19.921875
-0.022630;19.921875
0.040529;19.937500
0.049232;19.937500
0.034344;19.937500
0.008213;19.968750
0.024029;19.968750
-0.015609;19.968750
0.030183;19.968750
0.028987;19.968750
0.034828;19.968750
-0.027112;19.968750
-0.027691;20.015625
-0.057238;20.015625
-0.083642;20.015625
-0.022633;20.015625
0.035766;20.015625
0.076078;20.015625
0.036441;20.015625
0.053101;20.031250
0.006401;20.031250
0.005328;20.031250
-0.061054;20.031250
-0.017195;20.031250
-0.032398;20.031250
0.017865;20.031250
0.018837;20.031250
0.005486;20.046875
0.038889;20.046875
-0.042889;20.046875
-0.031309;20.078125
-0.053821;20.078125
-0.000425;20.078125
0.044779;20.093750
0.049265;20.093750
-0.004375;20.093750
0.004009;20.093750
-0.015234;20.125000
-0.010302;20.125000
-0.027554;20.125000
0.016142;20.140625
0.025187;20.140625
0.036378;20.140625
0.042421;20.140625
-0.039394;20.140625
-0.024083;20.156250
-0.076300;20.156250
-0.009586;20.156250
0.019090;20.203125
0.030315;20.203125
0.020475;20.203125
0.007529;20.203125
-0.017292;20.203125
-0.018761;20.203125
0.023590;20.203125
-0.006618;20.250000
0.010305;20.250000
0.007585;20.250000
0.015921;20.250000
0.048509;20.265625
-0.000369;20.265625
-0.050372;20.265625
-0.057234;20.281250
0.010573;20.281250
0.006295;20.281250
0.016840;20.281250
-0.024398;20.328125
-0.048696;20.328125
-0.051243;20.328125
-0.013198;20.328125
-0.034462;20.343750
0.113654;20.343750
0.087401;20.343750
0.121657;20.390625
0.055086;20.390625
0.002093;20.390625
-0.044388;20.390625
-0.078517;20.406250
-0.083191;20.406250
-0.067976;20.406250
-0.015971;20.421875
-0.041177;20.421875
0.017711;20.421875
0.010456;20.421875
0.012144;20.437500
0.021215;20.437500
0.057313;20.437500
0.043750;20.453125
0.010985;20.453125
-0.014212;20.453125
-0.016687;20.500000
0.035880;20.500000
-0.029338;20.500000
-0.032232;20.500000
-0.008426;20.531250
-0.025677;20.531250
0.024534;20.531250
0.016498;20.531250
0.018728;20.531250
-0.015203;20.562500
-0.021587;20.562500
-0.015563;20.562500
-0.004442;20.562500
0.038853;20.562500
0.010968;20.578125
0.030823;20.578125
0.003000;20.578125
0.036437;20.578125
-0.033230;20.578125
-0.027410;20.593750
-0.040946;20.593750
-0.057381;20.593750
-0.057333;20.593750
-0.012909;20.625000
0.043725;20.625000
0.028675;20.625000
0.045636;20.625000
0.064483;20.625000
0.045192;20.656250
0.030116;20.656250
-0.009486;20.656250
0.029581;20.656250
-0.019207;20.656250
-0.049700;20.687500
-0.053087;20.687500
-0.074743;20.687500
-0.016372;20.687500
-0.026888;20.703125
-0.000461;20.703125
0.027119;20.703125
0.015884;20.703125
0.018482;20.703125
0.020327;20.718750
0.048631;20.718750
0.025057;20.718750
0.039506;20.718750
0.007970;20.718750
-0.021708;20.718750
0.019581;20.718750
-0.006868;20.718750
-0.056213;20.734375
-0.065745;20.734375
-0.051296;20.734375
-0.008706;20.781250
-0.034492;20.781250
0.017888;20.781250
0.044066;20.781250
0.047306;20.796875
-0.001799;20.796875
0.029297;20.796875
0.024881;20.843750
-0.002050;20.843750
0.029964;20.843750
0.035050;20.843750
0.043978;20.859375
-0.011845;20.859375
-0.077615;20.859375
-0.091675;20.906250
-0.036570;20.906250
-0.011383;20.906250
0.045088;20.906250
0.019928;20.937500
0.003410;20.937500
-0.041418;20.937500
-0.020199;20.968750
-0.012431;20.968750
0.070880;20.968750
0.042430;20.968750
0.036733;20.968750
0.011987;20.968750
0.032122;20.968750
0.012083;20.968750
-0.030374;20.984375
-0.064284;20.984375
-0.007249;20.984375
-0.020802;21.031250
-0.005631;21.031250
0.049850;21.031250
-0.004989;21.031250
-0.082286;21.046875
-0.114247;21.046875
0.005426;21.046875
-0.014012;21.093750
0.075534;21.093750
0.083424;21.093750
0.133095;21.093750
0.096857;21.093750
0.010902;21.093750
-0.063067;21.093750
-0.083811;21.093750
-0.059534;21.109375
-0.028618;21.109375
-0.035583;21.109375
-0.069671;21.109375
-0.033770;21.125000
-0.001677;21.125000
-0.016398;21.125000
0.055219;21.125000
0.083097;21.125000
0.080484;21.125000
0.092598;21.140625
0.062092;21.140625
0.003551;21.140625
-0.054143;21.140625
-0.094804;21.140625
-0.070489;21.140625
0.013270;21.140625
-0.007904;21.156250
-0.034353;21.156250
-0.081531;21.156250
-0.100920;21.203125
-0.045376;21.203125
0.033560;21.203125
0.110339;21.203125
0.160613;21.218750
0.103209;21.218750
0.091454;21.218750
0.056322;21.265625
-0.041270;21.265625
-0.077994;21.265625
-0.123692;21.265625
-0.082509;21.265625
-0.046575;21.265625
-0.041271;21.265625
0.017964;21.312500
0.006147;21.312500
0.005695;21.312500
-0.000598;21.312500
0.025913;21.328125
0.041529;21.328125
0.072759;21.328125
0.033582;21.375000
0.029067;21.375000
0.003837;21.375000
-0.049204;21.421875
-0.067648;21.421875
-0.025592;21.421875
-0.039214;21.421875
0.005766;21.437500
0.046404;21.437500
0.009548;21.437500
0.043846;21.468750
-0.005363;21.468750
-0.011360;21.468750
-0.024339;21.468750
-0.000394;21.484375
0.017585;21.484375
0.045861;21.484375
0.005355;21.531250
0.023643;21.531250
-0.042443;21.531250
-0.086352;21.531250
-0.067121;21.546875
-0.003436;21.546875
0.026709;21.546875
0.038223;21.593750
0.061414;21.593750
0.022631;21.593750
0.033059;21.593750
-0.026412;21.609375
-0.031096;21.609375
-0.018934;21.609375
-0.014181;21.656250
-0.034563;21.656250
0.043208;21.656250
0.077946;21.656250
0.037386;21.671875
-0.031188;21.671875
-0.031750;21.671875
-0.048405;21.718750
-0.026881;21.718750
0.000760;21.718750
0.017885;21.718750
-0.000982;21.734375
-0.016868;21.734375
-0.038905;21.734375
0.051592;21.781250
0.027299;21.781250
0.033306;21.781250
0.017593;21.781250
-0.001454;21.828125
0.008194;21.828125
-0.025979;21.828125
-0.049273;21.875000
-0.001190;21.875000
-0.007629;21.875000
-0.040709;21.875000
0.024526;21.890625
0.039669;21.890625
-0.008897;21.890625
-0.012230;21.890625
-0.035549;21.921875
0.051068;21.921875
0.041667;21.921875
0.028171;21.937500
-0.011121;21.937500
-0.003676;21.937500
-0.001833;21.937500
-0.056055;21.953125
-0.036490;21.953125
-0.022881;21.953125
0.038729;22.000000
0.002330;22.000000
0.033089;22.000000
0.001575;22.000000
0.001213;22.015625
-0.021458;22.015625
-0.004593;22.015625
0.008152;22.062500
0.013064;22.062500
0.016137;22.062500
0.029375;22.078125
0.009724;22.078125
-0.010184;22.078125
-0.038621;22.078125
-0.035463;22.078125
-0.040569;22.078125
0.032266;22.078125
-0.000529;22.093750
0.030049;22.093750
-0.010226;22.093750
0.008334;22.109375
-0.016593;22.109375
0.016584;22.109375
-0.025519;22.156250
0.032563;22.156250
0.023980;22.156250
0.039893;22.156250
0.042791;22.171875
-0.029344;22.171875
-0.048879;22.171875
-0.054466;22.203125
-0.044268;22.203125
-0.006498;22.203125
0.021165;22.203125
0.012121;22.250000
0.011952;22.250000
-0.004921;22.250000
-0.013617;22.250000
0.050033;22.265625
0.002271;22.265625
0.036227;22.265625
0.030450;22.312500
0.032900;22.312500
0.028369;22.312500
-0.056848;22.312500
-0.082316;22.328125
-0.052541;22.328125
-0.032853;22.328125
-0.002275;22.375000
0.019878;22.375000
0.034798;22.375000
0.044721;22.375000
0.021750;22.375000
-0.009938;22.375000
0.009711;22.375000
-0.012616;22.375000
-0.014938;22.390625
0.027167;22.390625
0.050162;22.390625
0.015736;22.390625
-0.056923;22.390625
-0.057903;22.390625
-0.044860;22.437500
0.004085;22.437500
0.003709;22.437500
0.011274;22.437500
0.001192;22.453125
-0.017528;22.453125
0.031865;22.453125
0.044800;22.500000
0.037371;22.500000
0.014820;22.500000
-0.001289;22.500000
0.024584;22.515625
0.082575;22.515625
-0.018577;22.515625
-0.113733;22.531250
-0.145179;22.531250
-0.095270;22.531250
0.000751;22.531250
0.069833;22.546875
0.085309;22.546875
0.083187;22.546875
0.016384;22.546875
0.025554;22.562500
0.043598;22.562500
0.016589;22.562500
-0.046515;22.609375
-0.091469;22.609375
-0.075831;22.609375
-0.040224;22.609375
-0.021917;22.609375
0.007267;22.609375
0.068187;22.609375
0.068749;22.625000
0.088488;22.625000
0.053492;22.625000
0.020768;22.625000
-0.033834;22.625000
-0.075405;22.625000
-0.080710;22.625000
-0.054672;22.640625
-0.015517;22.640625
0.022259;22.640625
0.014646;22.640625
0.016343;22.640625
0.054104;22.640625
-0.004124;22.640625
-0.036100;22.656250
-0.015140;22.656250
0.021023;22.656250
0.025317;22.656250
0.041366;22.656250
0.033274;22.656250
-0.004330;22.656250
-0.042503;22.656250
-0.106094;22.671875
-0.019424;22.671875
-0.023111;22.671875
-0.004940;22.671875
0.050565;22.671875
0.109417;22.671875
0.120975;22.718750
0.024133;22.718750
-0.067330;22.718750
-0.084210;22.718750
-0.090556;22.718750
-0.035592;22.718750
0.012372;22.718750
0.035659;22.718750
0.042058;22.750000
0.007642;22.750000
-0.022463;22.750000
0.014783;22.765625
-0.006340;22.765625
0.012334;22.765625
0.001742;22.781250
0.047696;22.781250
0.033117;22.781250
-0.026757;22.781250
-0.047042;22.796875
-0.032452;22.796875
0.019488;22.796875
0.020730;22.812500
0.058188;22.812500
-0.081459;22.812500
-0.116377;22.812500
-0.091261;22.843750
-0.060034;22.843750
0.051540;22.843750
0.102129;22.843750
0.192180;22.843750
0.106211;22.843750
0.112097;22.843750
0.017501;22.859375
-0.069527;22.859375
-0.130967;22.859375
-0.130304;22.875000
-0.059152;22.875000
-0.062004;22.875000
0.003700;22.875000
0.012558;22.875000
0.024533;22.875000
0.012941;22.875000
0.024603;22.875000
0.052413;22.890625
0.024432;22.890625
0.036074;22.890625
0.009162;22.890625
0.033416;22.890625
0.006051;22.890625
-0.042375;22.906250
-0.039854;22.906250
-0.016922;22.906250
-0.032854;22.906250
-0.014895;22.953125
-0.007894;22.953125
0.000403;22.953125
-0.008291;22.953125
-0.001244;22.953125
0.047190;22.953125
0.010110;22.953125
0.029164;22.968750
0.043368;22.968750
0.032880;22.968750
-0.013893;22.968750
-0.026892;22.984375
-0.056423;22.984375
-0.041172;22.984375
-0.002531;22.984375
0.017092;23.000000
-0.014886;23.000000
0.000596;23.000000
0.014466;23.046875
0.036120;23.046875
-0.027259;23.046875
0.001458;23.046875
0.034915;23.062500
0.025033;23.062500
0.073894;23.062500
0.014576;23.109375
-0.037658;23.109375
-0.146469;23.109375
-0.124180;23.125000
-0.080911;23.125000
0.030625;23.125000
0.095761;23.125000
0.158696;23.125000
0.119174;23.125000
0.058059;23.203125
-0.015362;23.203125
-0.055354;23.203125
-0.078105;23.218750
-0.037972;23.218750
-0.052203;23.218750
-0.048481;23.218750
0.007518;23.218750
-0.019644;23.218750
0.000402;23.218750
-0.013631;23.218750
0.041757;23.234375
0.055954;23.234375
0.068073;23.234375
0.069719;23.281250
0.061223;23.281250
-0.033533;23.281250
-0.107088;23.328125
-0.109495;23.328125
-0.053857;23.328125
-0.017974;23.328125
0.008338;23.343750
0.061497;23.343750
0.073046;23.343750
0.065686;23.390625
-0.010991;23.390625
-0.019110;23.390625
-0.014086;23.406250
-0.021603;23.406250
-0.031887;23.406250
-0.008154;23.406250
0.010414;23.406250
0.008523;23.406250
-0.017082;23.406250
-0.023639;23.406250
0.024873;23.406250
0.022821;23.437500
0.029896;23.437500
0.041553;23.437500
0.008786;23.437500
-0.020561;23.437500
-0.051035;23.453125
-0.034322;23.453125
-0.009499;23.453125
-0.022140;23.453125
0.036831;23.468750
0.013980;23.468750
0.001114;23.468750
0.001638;23.468750
-0.024032;23.484375
0.011064;23.484375
0.010028;23.484375
0.009207;23.484375
0.042234;23.484375
0.008202;23.484375
0.030837;23.515625
-0.026156;23.515625
-0.043986;23.515625
-0.043754;23.515625
-0.023207;23.515625
-0.005774;23.515625
0.032823;23.515625
0.039554;23.562500
0.013849;23.562500
-0.028023;23.562500
-0.047198;23.562500
0.022921;23.609375
0.041309;23.609375
0.030265;23.609375
-0.017162;23.625000
0.032230;23.625000
0.033585;23.625000
-0.041379;23.625000
-0.058542;23.671875
-0.043632;23.671875
-0.016973;23.671875
-0.006462;23.671875
0.006427;23.703125
0.014249;23.703125
-0.001231;23.703125
0.019173;23.750000
0.036572;23.750000
0.018433;23.750000
0.050392;23.765625
0.027302;23.765625
0.012440;23.765625
-0.023522;23.765625
-0.012561;23.781250
-0.036156;23.781250
-0.063786;23.781250
-0.054541;23.828125
-0.007119;23.828125
0.007897;23.828125
0.009222;23.828125
0.054517;23.828125
0.027675;23.828125
0.005165;23.828125
-0.018620;23.828125
-0.054246;23.828125
0.021451;23.859375
0.017581;23.859375
0.053389;23.859375
0.045289;23.859375
0.028094;23.859375
-0.032598;23.875000
-0.038704;23.875000
-0.011672;23.875000
-0.048380;23.875000
0.006025;23.906250
-0.029393;23.906250
-0.002001;23.906250
0.000554;23.906250
-0.016324;23.906250
0.035371;23.921875
-0.006486;23.921875
0.007012;23.921875
0.047830;23.921875
0.056529;23.953125
0.043893;23.953125
-0.020342;23.953125
-0.062711;23.953125
-0.062661;23.953125
-0.020994;23.953125
-0.007096;23.953125
-0.002313;23.953125
-0.001916;23.953125
0.023401;23.968750
0.003499;23.968750
0.003981;23.968750
0.014128;23.968750
-0.950294;24.031250
0.949922;24.031250
0.473251;24.031250
0.549083;24.078125
-0.420800;24.078125
-0.490994;24.078125
0.035938;24.078125
-0.370993;24.093750
-0.262448;24.093750
0.255527;24.093750
-0.024273;24.140625
-0.028661;24.140625
0.284485;24.140625
0.039156;24.140625
-0.034294;24.156250
0.090061;24.156250
-0.000750;24.156250
-0.066015;24.156250
0.043432;24.156250
0.006397;24.156250
-0.000357;24.156250
0.044303;24.171875
-0.031550;24.171875
-0.022228;24.171875
-0.108052;24.171875
-1.240719;24.218750
1.144168;24.218750
0.525105;24.218750
0.750877;24.218750
-0.436158;24.218750
-0.512065;24.218750
0.040391;24.218750
-0.436239;24.218750
-0.349531;24.234375
0.237339;24.234375
0.008894;24.234375
-0.043325;24.250000
0.296212;24.250000
0.120930;24.250000
-0.034376;24.250000
0.124988;24.250000
-0.014293;24.250000
-0.072606;24.250000
-0.006221;24.265625
0.001722;24.265625
-0.022702;24.265625
0.007501;24.265625
0.048389;24.265625
-0.016141;24.265625
-0.048296;24.265625
-0.087769;24.281250
-0.027206;24.281250
-0.040090;24.281250
0.062559;24.281250
0.073100;24.328125
0.045733;24.328125
0.000285;24.328125
0.072525;24.343750
-0.064107;24.343750
-0.093782;24.343750
0.008232;24.343750
-0.032010;24.343750
-0.021201;24.343750
0.094014;24.343750
0.041084;24.343750
-0.001413;24.343750
0.024237;24.343750
-0.025920;24.343750
-0.036614;24.359375
-0.028425;24.359375
-0.020329;24.359375
-0.037393;24.359375
0.020849;24.375000
-0.013051;24.375000
-0.002218;24.375000
0.091820;24.406250
0.021608;24.406250
0.010994;24.406250
-0.021391;24.406250
-0.026341;24.453125
-0.019413;24.453125
0.029220;24.453125
-0.010975;24.468750
-0.029332;24.468750
-0.037616;24.468750
-0.024858;24.468750
0.024576;24.468750
0.019678;24.468750
0.063569;24.468750
0.029054;24.468750
0.029049;24.484375
-0.005714;24.484375
0.045736;24.484375
0.025980;24.531250
0.007157;24.531250
-0.093200;24.531250
-0.133126;24.531250
-0.105313;24.578125
-0.057545;24.578125
0.026104;24.578125
0.121516;24.578125
0.135914;24.578125
0.047115;24.578125
-0.023312;24.578125
-0.065783;24.625000
-0.066014;24.625000
-0.042509;24.625000
0.040605;24.625000
0.080842;24.640625
0.064383;24.640625
0.058296;24.640625
0.032238;24.656250
-0.011294;24.656250
-0.060262;24.656250
-0.111036;24.656250
-0.071584;24.656250
-0.043437;24.656250
0.016953;24.656250
0.026788;24.671875
0.020019;24.671875
0.013622;24.671875
0.071188;24.687500
0.027783;24.687500
-0.041017;24.687500
-0.062977;24.734375
-0.083927;24.734375
0.022256;24.734375
0.045929;24.734375
0.068163;24.750000
0.075441;24.750000
0.047462;24.750000
0.036327;24.796875
0.003546;24.796875
-0.058241;24.796875
-0.055263;24.796875
-0.060501;24.796875
-0.051163;24.796875
-0.039036;24.796875
-0.043803;24.843750
0.110943;24.843750
0.051070;24.843750
0.061281;24.843750
-0.066396;24.859375
-0.050350;24.859375
-0.058358;24.859375
-0.054794;24.906250
0.035179;24.906250
0.071445;24.906250
0.060323;24.906250
0.039403;24.906250
0.047921;24.906250
0.028239;24.906250
0.024192;24.953125
0.000107;24.953125
0.016771;24.953125
-0.104345;24.953125
-0.148966;24.968750
-0.186494;24.968750
-0.078669;24.968750
0.051005;25.015625
0.118374;25.015625
0.126724;25.015625
0.151916;25.015625
0.161999;25.031250
0.059699;25.031250
-0.046623;25.031250
-0.117592;25.078125
-0.133835;25.078125
-0.106329;25.078125
-0.109585;25.078125
0.015365;25.093750
0.030792;25.093750
0.064618;25.093750
0.075775;25.093750
0.073098;25.109375
0.070954;25.109375
-0.025116;25.109375
-0.080858;25.109375
-0.083164;25.109375
-0.032961;25.109375
-0.007375;25.156250
0.012035;25.156250
0.031703;25.156250
0.031281;25.156250
0.033048;25.171875
0.000725;25.171875
0.012267;25.171875
0.030002;25.218750
0.022702;25.218750
-0.029527;25.218750
-0.021559;25.218750
-0.043007;25.265625
-0.028433;25.265625
-0.043559;25.265625
-0.025481;25.265625
0.028164;25.281250
0.031418;25.281250
0.078809;25.281250
0.049976;25.296875
0.019349;25.296875
-0.035621;25.296875
-0.065783;25.296875
-0.050514;25.312500
-0.044426;25.312500
0.013633;25.312500
0.019221;25.328125
0.071955;25.328125
0.066088;25.328125
0.041423;25.328125
0.006351;25.343750
-0.016775;25.343750
-0.050555;25.343750
-0.080010;25.390625
-0.066401;25.390625
-0.023277;25.390625
-0.016637;25.390625
0.016985;25.390625
-0.011212;25.390625
0.040584;25.390625
0.049069;25.437500
0.094424;25.437500
0.079806;25.437500
0.040251;25.437500
0.009504;25.453125
-0.059823;25.453125
-0.087045;25.453125
-0.095087;25.500000
-0.067900;25.500000
-0.005530;25.500000
0.051308;25.500000
0.052660;25.515625
0.002916;25.515625
0.010721;25.515625
-0.006619;25.531250
0.014479;25.531250
-0.013543;25.531250
0.008096;25.531250
0.038108;25.578125
0.089280;25.578125
0.002463;25.578125
-0.066894;25.578125
-0.086596;25.593750
-0.064005;25.593750
0.013479;25.593750
-0.040356;25.640625
0.002796;25.640625
0.041458;25.640625
0.083852;25.640625
0.057153;25.656250
0.014413;25.656250
-0.028522;25.656250
-0.025562;25.671875
0.005771;25.671875
-0.004390;25.671875
0.014659;25.671875
-0.003568;25.671875
-0.033395;25.671875
-0.039352;25.671875
-0.044413;25.687500
0.001957;25.687500
0.105334;25.687500
0.085912;25.687500
-0.020456;25.687500
-0.095671;25.687500
-0.121916;25.687500
-0.011372;25.718750
0.021839;25.718750
0.054055;25.718750
0.086200;25.718750
0.126132;25.734375
0.089650;25.734375
-0.056948;25.734375
-0.106953;25.781250
-0.111186;25.781250
-0.094251;25.781250
-0.054363;25.781250
-0.010727;25.796875
0.052999;25.796875
0.068412;25.796875
0.061579;25.843750
0.062090;25.843750
0.015852;25.843750
0.037213;25.843750
-0.015318;25.859375
0.001215;25.859375
-0.008762;25.859375
0.012524;25.859375
-0.004720;25.859375
-0.081211;25.859375
-0.075993;25.859375
-0.083465;25.875000
-0.086923;25.875000
0.022946;25.875000
0.057375;25.921875
0.122821;25.921875
0.109730;25.921875
0.075350;25.921875
0.021634;25.937500
-0.037247;25.937500
-0.066828;25.937500
-0.045426;25.953125
-0.023114;25.953125
-0.003314;25.953125
-0.017702;25.953125
0.033385;25.953125
0.022590;25.953125
0.016178;25.953125
-0.000796;25.984375
-0.079963;25.984375
-0.014146;25.984375
-0.079547;25.984375
-0.095118;26.000000
-0.056444;26.000000
0.052865;26.000000
0.172417;26.046875
0.156294;26.046875
0.097023;26.046875
0.045374;26.062500
-0.022732;26.062500
-0.106766;26.062500
-0.093851;26.062500
-0.040742;26.109375
-0.018917;26.109375
0.050837;26.109375
0.000276;26.109375
-0.042512;26.125000
-0.039246;26.125000
-0.050383;26.125000
-0.027044;26.171875
0.045117;26.171875
0.026547;26.171875
0.071236;26.171875
0.055884;26.187500
0.063578;26.187500
-0.005825;26.187500
-0.034797;26.234375
-0.029035;26.234375
0.008867;26.234375
-0.034636;26.234375
-0.057889;26.250000
-0.056313;26.250000
-0.104240;26.250000
-0.042343;26.250000
0.018873;26.265625
0.098253;26.265625
0.110223;26.265625
0.153617;26.265625
0.109763;26.281250
0.012145;26.281250
-0.064472;26.281250
-0.108205;26.296875
-0.118351;26.296875
-0.064951;26.296875
-0.010636;26.343750
0.032479;26.343750
0.041188;26.343750
0.040220;26.343750
-0.014656;26.359375
-0.023133;26.359375
-0.069498;26.359375
0.063467;26.390625
0.055551;26.390625
0.004183;26.390625
-0.033540;26.390625
0.002190;26.390625
-0.012619;26.390625
-0.026690;26.390625
-0.033655;26.390625
0.024328;26.406250
0.061323;26.406250
0.045591;26.406250
0.072116;26.453125
0.014579;26.453125
-0.074738;26.453125
-0.119896;26.468750
-0.118062;26.468750
-0.045171;26.468750
0.064545;26.468750
0.145228;26.515625
0.112469;26.515625
0.094704;26.515625
-0.001252;26.515625
-0.057377;26.531250
-0.120635;26.531250
-0.135537;26.531250
-0.062036;26.562500
-0.027551;26.562500
0.038634;26.562500
0.088469;26.562500
0.085289;26.578125
0.082392;26.578125
0.071133;26.578125
0.021539;26.578125
-0.039757;26.593750
-0.057677;26.593750
-0.099922;26.593750
-0.058114;26.625000
-0.046319;26.625000
-0.007879;26.625000
0.046775;26.625000
0.038670;26.640625
0.071063;26.640625
0.000794;26.640625
-0.059030;26.687500
-0.055135;26.687500
-0.007437;26.687500
0.021406;26.687500
0.031056;26.703125
0.080837;26.703125
0.074460;26.703125
0.096017;26.750000
0.012425;26.750000
-0.084419;26.750000
-0.177733;26.750000
-0.167051;26.765625
-0.044577;26.765625
0.030346;26.765625
0.080412;26.781250
0.141556;26.781250
0.124159;26.781250
0.030626;26.781250
0.008898;26.828125
-0.046188;26.828125
-0.054805;26.828125
-0.097423;26.828125
-0.064395;26.843750
-0.026386;26.843750
0.024956;26.843750
0.035061;26.890625
0.034117;26.890625
0.033488;26.890625
0.064122;26.906250
0.037157;26.906250
0.002984;26.906250
0.012552;26.906250
-0.062989;26.953125
-0.170127;26.953125
-0.235638;26.953125
-0.131108;26.953125
0.158258;26.953125
0.205907;26.953125
0.263879;26.953125
0.119985;26.953125
0.111017;26.968750
0.052669;26.968750
-0.094783;26.968750
-0.236178;27.015625
-0.201466;27.015625
-0.119752;27.015625
-0.005797;27.015625
0.022220;27.031250
0.083474;27.031250
0.053184;27.031250
0.021305;27.078125
-0.011554;27.078125
0.011813;27.078125
0.025795;27.093750
0.040739;27.093750
0.046479;27.093750
0.058181;27.093750
0.038437;27.109375
-0.044133;27.109375
-0.116478;27.109375
-0.031317;27.125000
-0.051464;27.125000
0.021675;27.125000
-0.037174;27.125000
0.010375;27.140625
0.027987;27.140625
0.025013;27.140625
0.022478;27.140625
0.039015;27.171875
0.008355;27.171875
-0.013496;27.171875
-0.000418;27.171875
-0.027128;27.171875
-0.027012;27.187500
-0.062291;27.187500
0.042313;27.187500
0.053556;27.187500
0.056830;27.187500
-0.005548;27.218750
-0.027274;27.218750
-0.046799;27.218750
-0.068587;27.218750
-0.014029;27.218750
0.028080;27.250000
0.056891;27.250000
0.098230;27.250000
0.070679;27.250000
-0.012364;27.250000
-0.047807;27.265625
-0.063860;27.265625
-0.099909;27.265625
-0.055469;27.265625
-0.020716;27.296875
0.004988;27.296875
0.043274;27.296875
0.062528;27.296875
0.061895;27.296875
0.019289;27.296875
0.016640;27.296875
0.031542;27.296875
-0.034782;27.296875
-0.023035;27.296875
-0.009547;27.312500
0.014405;27.312500
-0.046338;27.312500
-0.035657;27.312500
-0.046957;27.312500
-0.008943;27.343750
0.008733;27.343750
0.027902;27.343750
0.062526;27.343750
0.083886;27.343750
0.044248;27.359375
-0.052518;27.359375
-0.119307;27.359375
-0.038791;27.359375
-0.001692;27.359375
0.034302;27.375000
0.008658;27.375000
-0.008082;27.375000
0.011630;27.375000
-0.006278;27.406250
0.033290;27.406250
0.055627;27.406250
0.044220;27.406250
0.083933;27.406250
-0.020917;27.437500
-0.053755;27.437500
-0.123872;27.437500
-0.100034;27.437500
-0.038319;27.437500
-0.004882;27.468750
0.063139;27.468750
0.089112;27.468750
0.073117;27.468750
-0.000747;27.468750
-0.010107;27.484375
-0.050911;27.484375
-0.059888;27.484375
0.049025;27.531250
0.008332;27.531250
0.080238;27.531250
-0.025562;27.531250
-0.000289;27.546875
-0.014129;27.546875
-0.057750;27.546875
-0.047905;27.562500
-0.014950;27.562500
-0.018627;27.562500
0.012146;27.562500
0.055657;27.609375
0.087458;27.609375
0.055971;27.609375
-0.016626;27.609375
-0.113318;27.625000
0.008256;27.625000
-0.031567;27.625000
0.017545;27.640625
-0.014097;27.640625
0.023135;27.640625
0.049904;27.687500
0.029820;27.687500
0.011199;27.687500
0.015125;27.687500
-0.069389;27.687500
-0.046631;27.687500
-0.055872;27.687500
-0.036783;27.703125
-0.005548;27.703125
0.048473;27.703125
0.092339;27.703125
0.031215;27.703125
0.038699;27.703125
0.038807;27.703125
-0.016270;27.718750
-0.059024;27.718750
-0.101753;27.718750
-0.025673;27.718750
-0.007777;27.765625
0.007265;27.765625
-0.003718;27.765625
-0.014461;27.765625
0.040634;27.781250
0.072363;27.781250
0.044323;27.781250
-0.004276;27.781250
0.021668;27.781250
0.038023;27.781250
-0.005461;27.781250
-0.011177;27.796875
-0.021109;27.796875
-0.060873;27.812500
-0.083731;27.812500
-0.091765;27.812500
-0.015284;27.812500
0.018512;27.843750
0.039300;27.843750
0.049257;27.843750
0.101176;27.890625
0.068403;27.890625
-0.003745;27.890625
-0.027044;27.890625
-0.007184;27.890625
-0.047435;27.890625
-0.000446;27.890625
0.012650;27.937500
0.003297;27.937500
0.003892;27.937500
-0.068786;27.937500
-0.015136;27.937500
-0.028226;27.937500
-0.011844;27.937500
0.036520;27.984375
0.032966;27.984375
0.038102;27.984375
0.051241;27.984375
-0.016050;28.000000
-0.040471;28.000000
-0.050694;28.000000
-0.040694;28.015625
-0.028088;28.015625
0.045618;28.015625
0.058732;28.015625
0.010366;28.046875
0.015231;28.046875
0.017594;28.046875
0.020937;28.046875
0.048664;28.062500
0.037488;28.062500
-0.013927;28.062500
-0.087759;28.078125
-0.142536;28.078125
-0.126005;28.078125
-0.009040;28.078125
0.051002;28.125000
0.085146;28.125000
0.158543;28.125000
0.119989;28.140625
0.062486;28.140625
-0.123117;28.140625
-0.178909;28.140625
-0.147097;28.140625
-0.067364;28.140625
0.045997;28.140625
0.164942;28.140625
0.165034;28.156250
0.139110;28.156250
0.064212;28.156250
-0.048764;28.203125
-0.136655;28.203125
-0.157803;28.203125
-0.086771;28.203125
-0.017895;28.218750
-0.010677;28.218750
-0.022264;28.218750
-0.003130;28.265625
0.045682;28.265625
0.067794;28.265625
0.090641;28.265625
0.082105;28.265625
0.045752;28.265625
-0.012322;28.265625
-0.027093;28.312500
-0.052182;28.312500
-0.072469;28.312500
-0.065071;28.312500
0.014623;28.312500
-0.008038;28.312500
0.027520;28.312500
0.018209;28.328125
-0.004703;28.328125
-0.015037;28.328125
0.076133;28.328125
0.099564;28.328125
-0.001506;28.328125
-0.142803;28.328125
-0.225822;28.375000
-0.116488;28.375000
-0.009843;28.375000
0.107687;28.375000
0.201085;28.375000
0.211802;28.375000
0.218702;28.375000
0.094522;28.375000
-0.061853;28.375000
-0.167468;28.375000
-0.166987;28.375000
-0.169977;28.375000
-0.137018;28.390625
-0.047128;28.390625
0.026363;28.390625
0.088607;28.437500
0.077785;28.437500
0.066871;28.437500
0.057897;28.437500
0.004276;28.453125
-0.013388;28.453125
0.009146;28.453125
0.017006;28.500000
0.039578;28.500000
0.010092;28.500000
-0.057523;28.515625
-0.096188;28.515625
-0.135598;28.515625
-0.082232;28.515625
-0.005146;28.515625
0.100304;28.515625
0.160815;28.515625
0.183544;28.562500
0.090030;28.562500
0.041688;28.562500
-0.050974;28.562500
-0.122271;28.562500
-0.095796;28.562500
-0.094945;28.562500
-0.042845;28.578125
-0.039962;28.578125
-0.034335;28.578125
0.010254;28.578125
0.025188;28.609375
0.051541;28.609375
0.048645;28.609375
0.051798;28.609375
0.014608;28.625000
0.004751;28.625000
-0.012725;28.625000
-0.017960;28.656250
0.033973;28.656250
0.064794;28.656250
0.048314;28.656250
-0.026804;28.671875
-0.031966;28.671875
-0.009026;28.671875
-0.043685;28.718750
-0.144544;28.718750
-0.164553;28.718750
-0.061781;28.718750
0.058531;28.734375
0.103133;28.734375
0.149788;28.734375
0.167170;28.765625
0.150431;28.765625
0.029476;28.765625
-0.083026;28.765625
-0.069092;28.781250
-0.122599;28.781250
-0.077157;28.781250
-0.139081;28.828125
-0.061595;28.828125
-0.020598;28.828125
0.049533;28.828125
0.086323;28.828125
0.101471;28.828125
0.066990;28.828125
0.047228;28.828125
0.008332;28.859375
-0.046428;28.859375
-0.021320;28.859375
-0.037268;28.859375
0.007089;28.859375
0.117401;28.859375
0.032202;28.859375
-0.063921;28.875000
-0.175670;28.875000
-0.150592;28.875000
-0.108218;28.906250
-0.025545;28.906250
0.090382;28.906250
0.186777;28.921875
0.221654;28.921875
0.179565;28.921875
0.065045;28.921875
-0.032518;28.968750
-0.126410;28.968750
-0.127265;28.968750
-0.134685;28.984375
-0.038885;28.984375
0.004870;28.984375
-0.044893;28.984375
-0.101741;29.031250
-0.073989;29.031250
-0.026740;29.031250
0.021508;29.031250
0.122282;29.031250
0.164082;29.031250
0.168770;29.031250
0.123349;29.046875
0.085131;29.046875
-0.027401;29.046875
-0.083584;29.046875
-0.147174;29.062500
-0.103788;29.062500
-0.125940;29.062500
-0.094899;29.093750
0.009515;29.093750
0.035116;29.093750
0.054632;29.093750
0.035210;29.109375
0.072502;29.109375
0.034191;29.109375
-0.004739;29.156250
0.007313;29.156250
0.023896;29.156250
-0.002641;29.156250
-0.046422;29.171875
-0.023215;29.171875
-0.024801;29.171875
0.010364;29.218750
0.025519;29.218750
0.043776;29.218750
0.040754;29.218750
0.035797;29.234375
0.002468;29.234375
-0.067100;29.234375
-0.080108;29.281250
-0.059406;29.281250
-0.031784;29.281250
0.024335;29.281250
0.027435;29.296875
0.082583;29.296875
0.045736;29.296875
-0.010744;29.343750
-0.044532;29.343750
-0.010158;29.343750
-0.035623;29.343750
0.035867;29.343750
0.049851;29.343750
0.019354;29.343750
-0.039673;29.390625
-0.098525;29.390625
-0.019588;29.390625
0.030226;29.390625
0.025247;29.390625
0.074708;29.390625
0.049558;29.390625
0.008801;29.390625
-0.005639;29.406250
-0.009160;29.406250
-0.049616;29.406250
-0.040085;29.437500
-0.054099;29.437500
-0.038626;29.437500
0.005978;29.453125
0.046813;29.453125
0.031127;29.453125
0.031756;29.453125
0.011015;29.500000
0.027233;29.500000
-0.017559;29.500000
-0.040980;29.500000
0.015096;29.500000
0.008671;29.500000
0.003236;29.500000
0.004478;29.500000
-0.032483;29.515625
0.030352;29.515625
-0.014261;29.515625
0.020039;29.562500
-0.035416;29.562500
0.005747;29.562500
0.016543;29.562500
0.009391;29.578125
0.004159;29.578125
-0.013673;29.578125
-0.043782;29.625000
-0.096936;29.625000
-0.021664;29.625000
0.029446;29.625000
0.054038;29.640625
0.056234;29.640625
0.074876;29.640625
0.076938;29.640625
0.000732;29.656250
-0.038911;29.656250
-0.024819;29.656250
-0.020002;29.671875
-0.054792;29.671875
-0.088989;29.671875
-0.042228;29.718750
0.048312;29.718750
0.034486;29.718750
0.009659;29.718750
0.049099;29.734375
0.028151;29.734375
0.062416;29.734375
0.014210;29.750000
0.019377;29.750000
-0.130511;29.750000
-0.157737;29.750000
-0.120976;29.796875
-0.019806;29.796875
0.098991;29.796875
0.119653;29.796875
0.169480;29.828125
0.124949;29.828125
0.068308;29.828125
-0.033935;29.875000
-0.064279;29.875000
-0.104567;29.875000
-0.064997;29.875000
-0.102473;29.890625
-0.097566;29.890625
0.021626;29.890625
0.005015;29.937500
0.027819;29.937500
0.085872;29.937500
0.011209;29.937500
0.039187;29.937500
0.012397;29.937500
-0.020709;29.937500
-0.010645;29.937500
0.002819;29.968750
-0.008640;29.968750
0.054818;29.968750
0.022270;30.015625
0.037555;30.015625
0.005161;30.015625
-0.070310;30.015625
-0.032223;30.031250
-0.010640;30.031250
0.000533;30.031250
-0.020524;30.078125
-0.030075;30.078125
-0.029791;30.078125
-0.011966;30.078125
-0.005437;30.078125
0.001922;30.078125
0.091374;30.078125
0.047100;30.078125
0.040146;30.109375
0.033079;30.109375
0.013832;30.109375
-0.057470;30.109375
-0.044077;30.109375
-0.027244;30.109375
0.002774;30.109375
0.004809;30.140625
0.003109;30.140625
-0.055381;30.140625
-0.102866;30.156250
-0.065469;30.156250
0.004953;30.156250
0.076410;30.171875
0.123274;30.171875
0.133349;30.171875
0.142604;30.171875
0.094121;30.218750
-0.048236;30.218750
-0.193268;30.218750
-0.185378;30.218750
-0.139337;30.234375
-0.069538;30.234375
-0.012803;30.234375
0.132532;30.281250
0.209553;30.281250
0.099522;30.281250
-0.011599;30.281250
-0.083984;30.281250
-0.094494;30.281250
-0.042766;30.281250
0.026700;30.312500
0.058662;30.312500
0.092506;30.312500
0.032042;30.312500
-0.074143;30.328125
0.005120;30.328125
-0.061839;30.328125
-0.028701;30.328125
-0.025075;30.328125
0.013324;30.328125
-0.005292;30.343750
-0.039087;30.343750
-0.016880;30.343750
0.028593;30.343750
0.029129;30.390625
0.050439;30.390625
0.101869;30.390625
0.091980;30.390625
0.004990;30.406250
-0.056637;30.406250
-0.157554;30.406250
-0.144595;30.406250
-0.075705;30.406250
0.009426;30.406250
0.087431;30.406250
0.111924;30.421875
0.094736;30.421875
0.064301;30.421875
-0.008219;30.421875
-0.033497;30.453125
-0.053594;30.453125
-0.023074;30.453125
-0.023581;30.453125
0.031199;30.484375
-0.002191;30.484375
-0.010140;30.484375
-0.047873;30.484375
0.010975;30.484375
-0.004318;30.515625
-0.020236;30.515625
-0.011118;30.515625
0.031536;30.515625
0.005513;30.515625
-0.031495;30.515625
-0.029981;30.515625
0.009658;30.562500
0.040916;30.562500
0.034470;30.562500
0.078049;30.562500
0.069333;30.562500
0.029890;30.562500
-0.026089;30.562500
-0.077986;30.562500
-0.084171;30.578125
-0.078306;30.578125
-0.058942;30.578125
0.006901;30.625000
0.033943;30.625000
0.040107;30.625000
0.031485;30.625000
0.016838;30.640625
0.038857;30.640625
0.042977;30.640625
0.065457;30.687500
0.070866;30.687500
0.031518;30.687500
-0.135435;30.687500
-0.202693;30.703125
-0.206739;30.703125
-0.026659;30.703125
0.085718;30.750000
0.143015;30.750000
0.181513;30.750000
0.131652;30.750000
0.067171;30.765625
-0.031137;30.765625
-0.099090;30.765625
-0.068483;30.812500
-0.044514;30.812500
-0.044849;30.812500
-0.056692;30.828125
-0.087105;30.828125
-0.025426;30.828125
-0.033234;30.828125
0.111693;30.828125
0.052688;30.828125
0.075693;30.828125
0.094878;30.828125
0.030958;30.843750
0.020979;30.843750
-0.055829;30.890625
-0.071286;30.890625
-0.035472;30.890625
-0.057189;30.890625
0.006629;30.906250
0.029748;30.906250
0.013779;30.906250
-0.003002;30.921875
-0.007375;30.921875
-0.052108;30.921875
0.018844;30.921875
0.048363;30.953125
0.060979;30.953125
0.011034;30.953125
-0.006762;30.968750
-0.118156;30.968750
-0.102814;30.968750
-0.056273;30.968750
0.050650;30.968750
0.143322;30.968750
0.065749;30.968750
0.078586;30.968750
0.043970;30.984375
-0.001084;30.984375
-0.050192;30.984375
-0.079011;31.031250
-0.028989;31.031250
0.017703;31.031250
0.006264;31.031250
-0.049742;31.078125
-0.063718;31.078125
-0.080997;31.078125
-0.053039;31.078125
-0.014064;31.093750
0.051708;31.093750
0.154473;31.093750
0.115316;31.140625
0.054157;31.140625
0.024775;31.140625
0.010376;31.140625
-0.026895;31.156250
-0.044464;31.156250
-0.064630;31.156250
-0.101115;31.203125
-0.066755;31.203125
-0.046391;31.203125
0.011482;31.203125
0.019701;31.234375
0.054575;31.234375
0.090902;31.234375
0.070156;31.281250
0.027190;31.281250
-0.003550;31.281250
-0.026249;31.281250
-0.035696;31.296875
-0.028491;31.296875
-0.081561;31.296875
-0.016740;31.343750
0.021493;31.343750
0.052624;31.343750
0.033275;31.343750
-0.004465;31.375000
0.000704;31.375000
-0.023496;31.375000
-0.056512;31.390625
0.031423;31.390625
0.047222;31.390625
0.036605;31.390625
-0.014737;31.437500
-0.061043;31.437500
-0.013371;31.437500
-0.015405;31.437500
-0.024280;31.437500
0.066535;31.437500
0.048972;31.437500
-0.006184;31.453125
-0.024589;31.453125
-0.010528;31.453125
-0.001928;31.468750
-0.007418;31.468750
-0.003269;31.468750
0.020486;31.468750
0.017558;31.468750
0.012865;31.468750
-0.002703;31.468750
-0.009862;31.484375
-0.023950;31.484375
-0.041990;31.484375
0.005327;31.484375
-0.001274;31.484375
0.021671;31.484375
-1.172363;31.484375
1.115603;31.484375
0.567914;31.500000
0.674257;31.500000
-0.529566;31.500000
-0.551933;31.500000
0.059213;31.515625
-0.450586;31.515625
-0.286443;31.515625
0.308829;31.546875
0.006610;31.546875
-0.030876;31.546875
0.310747;31.546875
0.000047;31.562500
-0.062350;31.562500
0.131543;31.562500
0.019496;31.609375
-0.044739;31.609375
0.065374;31.609375
-0.015298;31.609375
-0.036574;31.625000
-0.007394;31.625000
-0.057825;31.625000
-0.001971;31.640625
-0.019377;31.640625
-0.000668;31.640625
0.034113;31.640625
-0.011103;31.656250
0.038783;31.656250
0.009642;31.656250
-0.093558;31.671875
-0.078085;31.671875
0.033887;31.671875
0.025721;31.671875
0.021556;31.703125
0.086781;31.703125
-0.013118;31.703125
-0.046945;31.703125
-0.016237;31.718750
0.038453;31.718750
0.008330;31.718750
0.050504;31.734375
-0.025489;31.734375
-0.009059;31.734375
0.075199;31.734375
-0.063535;31.750000
-0.080158;31.750000
-0.006819;31.750000
-0.001371;31.796875
0.024559;31.796875
0.041714;31.796875
-0.009512;31.796875
-0.065907;31.812500
-0.035797;31.812500
-0.006709;31.812500
0.006696;31.828125
0.081920;31.828125
0.068114;31.828125
0.018799;31.828125
0.019358;31.843750
0.038721;31.843750
-0.030979;31.843750
-0.085293;31.859375
-0.097822;31.859375
-0.013266;31.859375
-0.019877;31.859375
0.007666;31.890625
-0.000102;31.890625
0.045925;31.890625
0.066349;31.906250
0.044581;31.906250
0.025459;31.906250
0.020795;31.906250
-0.006898;31.937500
-0.008429;31.937500
-0.055166;31.937500
-0.035644;31.937500
-0.044600;31.953125
-0.052325;31.953125
-0.002509;31.953125
0.052878;31.984375
0.054831;31.984375
0.048143;31.984375
0.003379;31.984375
-0.035094;32.015625
-0.055629;32.015625
-0.022263;32.015625
-0.018916;32.078125
0.044331;32.078125
0.037043;32.078125
0.027536;32.078125
0.050669;32.093750
-0.001778;32.093750
-0.013150;32.093750
-0.032597;32.125000
-0.036986;32.125000
-0.014864;32.125000
0.021062;32.125000
0.001009;32.140625
0.005562;32.140625
-0.025097;32.140625
-0.088455;32.140625
-0.037492;32.156250
-0.027803;32.156250
0.061612;32.156250
0.084785;32.203125
0.087070;32.203125
0.084239;32.203125
0.026801;32.203125
-0.032608;32.218750
-0.069664;32.218750
-0.054164;32.218750
-0.015738;32.265625
-0.030524;32.265625
-0.028166;32.265625
-0.028734;32.265625
0.016465;32.281250
-0.011188;32.281250
0.021216;32.281250
0.005784;32.281250
0.029409;32.296875
0.031815;32.296875
0.054708;32.296875
0.064613;32.343750
-0.036375;32.343750
-0.073217;32.343750
-0.071735;32.343750
-0.014750;32.359375
-0.020619;32.359375
0.001887;32.359375
0.018262;32.406250
0.056436;32.406250
0.059060;32.406250
0.009418;32.406250
0.013695;32.421875
0.031027;32.421875
-0.011020;32.421875
-0.035607;32.468750
-0.032179;32.468750
-0.030161;32.468750
-0.030441;32.468750
-0.051911;32.484375
-0.019952;32.484375
0.022732;32.484375
0.038223;32.484375
0.002578;32.484375
0.017482;32.484375
0.002147;32.484375
0.022852;32.531250
-0.006066;32.531250
0.063253;32.531250
0.041252;32.531250
0.041405;32.546875
-0.043242;32.546875
-0.037606;32.546875
-0.043170;32.562500
-0.052834;32.562500
-0.002370;32.562500
0.018869;32.562500
0.005483;32.578125
-0.034850;32.578125
-0.006714;32.578125
-0.020616;32.578125
-0.010523;32.609375
-0.017876;32.609375
0.080290;32.609375
0.054843;32.656250
0.045040;32.656250
0.025566;32.656250
-0.020608;32.656250
0.050862;32.671875
-0.054416;32.671875
-0.066532;32.671875
-0.077181;32.687500
-0.032836;32.687500
0.018751;32.687500
0.077918;32.687500
-0.004865;32.734375
0.036658;32.734375
0.024133;32.734375
-0.011946;32.750000
-0.004529;32.750000
-0.039357;32.750000
-0.015463;32.750000
-0.010268;32.750000
-0.004772;32.750000
0.014620;32.750000
0.012162;32.765625
-0.008270;32.765625
0.028806;32.765625
0.001566;32.765625
-0.005899;32.796875
-0.006711;32.796875
0.016988;32.796875
0.003500;32.796875
-0.037305;32.812500
-0.010577;32.812500
0.005692;32.812500
0.011819;32.859375
0.022224;32.859375
0.017961;32.859375
0.015839;32.859375
0.027144;32.906250
-0.031840;32.906250
-0.062126;32.906250
0.007066;32.921875
-0.000617;32.921875
-0.006655;32.921875
-0.018005;32.921875
-0.002643;32.968750
-0.004344;32.968750
-0.048437;32.968750
-0.003685;32.968750
0.047983;32.984375
0.085607;32.984375
0.026166;32.984375
0.042305;33.000000
0.005987;33.000000
-0.021084;33.000000
-0.027849;33.000000
-0.002030;33.046875
-0.029520;33.046875
-0.062506;33.046875
-0.061983;33.046875
-0.041946;33.062500
0.021803;33.062500
0.007987;33.062500
0.047701;33.062500
0.051489;33.062500
0.044215;33.062500
0.033635;33.093750
0.040570;33.093750
0.014262;33.093750
0.017723;33.093750
-0.024815;33.125000
-0.073581;33.125000
-0.074972;33.125000
-0.068121;33.171875
-0.073389;33.171875
-0.003211;33.171875
0.048882;33.171875
0.093420;33.171875
0.040647;33.171875
0.014339;33.171875
-0.001855;33.171875
0.033694;33.187500
-0.000475;33.187500
0.017475;33.187500
0.005437;33.203125
-0.007825;33.203125
-0.013463;33.203125
-0.087095;33.250000
-0.007080;33.250000
-0.025267;33.250000
0.014782;33.250000
0.043592;33.265625
0.018298;33.265625
0.025635;33.265625
-0.024692;33.265625
-0.017411;33.281250
-0.014985;33.281250
-0.009032;33.281250
-0.007508;33.312500
0.044898;33.312500
0.005978;33.312500
0.020833;33.312500
-0.009501;33.343750
-0.018282;33.343750
0.031594;33.343750
-0.048201;33.390625
-0.031880;33.390625
-0.009857;33.390625
0.036384;33.390625
-0.004598;33.406250
-0.013466;33.406250
0.013182;33.406250
-0.002247;33.406250
-0.000640;33.406250
0.005243;33.406250
0.032719;33.406250
0.028532;33.421875
0.005076;33.421875
-0.012758;33.421875
-0.007962;33.421875
0.023390;33.421875
-0.022833;33.421875
-0.026319;33.421875
-0.036078;33.437500
0.029975;33.437500
-0.014994;33.437500
-0.029904;33.437500
-0.012359;33.453125
0.007886;33.453125
0.025107;33.453125
0.038334;33.484375
0.045147;33.484375
0.013529;33.484375
0.022300;33.484375
-0.041978;33.484375
-0.065855;33.500000
0.004545;33.500000
-0.051986;33.500000
-0.015802;33.500000
-0.035084;33.546875
0.028776;33.546875
0.028540;33.546875
0.010489;33.546875
0.067492;33.546875
0.072267;33.562500
0.000243;33.562500
0.020040;33.562500
-0.004444;33.562500
-0.016845;33.593750
-0.033747;33.593750
-0.036303;33.593750
-0.046460;33.593750
-0.017847;33.593750
-0.062674;33.609375
-0.045693;33.609375
-0.021541;33.609375
0.016653;33.609375
0.080936;33.609375
0.056950;33.656250
0.088151;33.656250
0.098912;33.656250
0.010234;33.671875
-0.016592;33.671875
-0.056605;33.671875
-0.079543;33.671875
-0.067995;33.718750
-0.067505;33.718750
-0.004871;33.718750
0.020983;33.718750
0.031937;33.718750
0.056473;33.718750
0.022408;33.718750
0.024087;33.718750
-0.017920;33.734375
-0.026218;33.734375
-0.006218;33.734375
0.025260;33.781250
0.007648;33.781250
-0.009542;33.781250
0.005409;33.781250
-0.014071;33.812500
-0.003807;33.812500
-0.033481;33.812500
-0.045835;33.812500
0.054253;33.828125
0.020390;33.828125
0.044355;33.828125
-0.003866;33.875000
-0.022371;33.875000
-0.012948;33.875000
-0.047155;33.875000
-0.031785;33.906250
0.035857;33.906250
0.009212;33.906250
0.051402;33.906250
0.046309;33.921875
0.034497;33.921875
-0.037230;33.921875
-0.050110;33.968750
-0.009852;33.968750
-0.057313;33.968750
-0.006687;33.968750
0.027545;33.984375
0.040406;33.984375
0.011061;33.984375
-0.047445;34.031250
-0.062752;34.031250
0.007727;34.031250
-0.005409;34.031250
0.056813;34.062500
0.065172;34.062500
0.074976;34.062500
0.062554;34.109375
-0.031284;34.109375
-0.078336;34.109375
-0.058573;34.109375
-0.029670;34.125000
-0.006434;34.125000
-0.002918;34.125000
-0.014332;34.171875
-0.006232;34.171875
-0.007574;34.171875
-0.020598;34.171875
0.014308;34.171875
0.048312;34.171875
0.038038;34.203125
0.019021;34.203125
0.013425;34.203125
0.016872;34.203125
-0.009342;34.203125
0.018772;34.218750
-0.036940;34.218750
-0.045289;34.218750
-0.076713;34.218750
-0.004133;34.234375
0.010593;34.234375
0.021207;34.234375
0.023499;34.234375
0.034770;34.234375
0.054513;34.250000
0.069680;34.250000
0.017673;34.250000
-0.038297;34.250000
-0.078360;34.265625
-0.077908;34.265625
-0.082624;34.265625
0.014774;34.265625
-0.005652;34.265625
0.052920;34.265625
0.061992;34.265625
0.074040;34.265625
0.060894;34.296875
-0.040948;34.296875
-0.038607;34.296875
-0.030644;34.343750
-0.053440;34.343750
-0.026787;34.343750
0.032546;34.343750
0.023190;34.406250
0.038353;34.406250
-0.002673;34.406250
0.002021;34.453125
0.013332;34.453125
-0.013041;34.453125
-0.065778;34.453125
-0.025294;34.468750
-0.035094;34.468750
0.017011;34.468750
0.027562;34.484375
0.039166;34.484375
0.034557;34.484375
0.035393;34.484375
-0.012366;34.515625
0.027359;34.515625
0.009462;34.515625
0.007884;34.515625
-0.058188;34.546875
-0.070777;34.546875
-0.011824;34.546875
-0.042616;34.546875
0.007256;34.562500
0.107056;34.562500
0.082978;34.562500
0.002008;34.562500
-0.125468;34.578125
-0.097363;34.578125
-0.040823;34.578125
-0.001245;34.625000
0.071669;34.625000
0.120299;34.625000
0.092939;34.625000
0.072026;34.625000
-0.003996;34.625000
-0.067544;34.625000
-0.098551;34.640625
-0.014276;34.640625
-0.028504;34.640625
-0.060048;34.640625
-0.055148;34.687500
-0.034139;34.687500
0.021929;34.687500
0.047404;34.687500
0.042094;34.734375
0.082404;34.734375
0.074106;34.734375
0.022153;34.734375
0.029985;34.750000
-0.030726;34.750000
-0.069098;34.750000
-0.051110;34.765625
-0.039397;34.765625
-0.047703;34.765625
0.007934;34.765625
0.008568;34.812500
0.022915;34.812500
0.032987;34.812500
-0.013737;34.812500
0.010643;34.828125
0.008993;34.828125
0.006825;34.828125
0.034304;34.828125
-0.001033;34.828125
-0.003698;34.859375
-0.001104;34.859375
-0.004336;34.859375
-0.061692;34.859375
0.032808;34.859375
-0.011191;34.890625
0.013029;34.890625
-0.004757;34.890625
0.017291;34.890625
0.002102;34.890625
-0.034120;34.906250
-0.034652;34.906250
0.006494;34.906250
0.030443;34.953125
0.052196;34.953125
0.068591;34.953125
-0.024782;34.953125
-0.036689;34.984375
-0.097456;34.984375
0.008092;34.984375
-0.008904;35.000000
0.000780;35.000000
0.017059;35.000000
0.021569;35.000000
0.040548;35.015625
0.000919;35.015625
-0.043473;35.015625
0.011485;35.015625
0.029213;35.015625
0.021388;35.015625
0.052286;35.015625
0.008800;35.015625
-0.006340;35.031250
-0.033005;35.031250
-0.075451;35.031250
-0.081239;35.031250
-0.051440;35.046875
0.005458;35.046875
0.050949;35.046875
0.019861;35.093750
0.016635;35.093750
0.010274;35.093750
0.013453;35.093750
0.018968;35.109375
0.062595;35.109375
0.051762;35.109375
0.059115;35.125000
0.034395;35.125000
-0.038330;35.125000
-0.109239;35.125000
-0.098658;35.140625
-0.028580;35.140625
-0.042451;35.140625
0.002381;35.156250
0.026193;35.156250
0.035937;35.156250
0.024873;35.156250
0.007029;35.187500
0.007447;35.187500
0.031650;35.187500
0.004040;35.187500
0.046636;35.203125
0.032154;35.203125
-0.007617;35.203125
-0.035799;35.218750
-0.083546;35.218750
-0.025019;35.218750
-0.040620;35.218750
-0.050608;35.234375
0.016415;35.234375
0.079288;35.234375
0.098452;35.234375
0.060155;35.250000
0.019120;35.250000
-0.012665;35.250000
-0.059973;35.265625
-0.093297;35.265625
-0.011980;35.265625
-0.008045;35.265625
-0.012708;35.328125
-0.022958;35.328125
-0.049950;35.328125
0.071533;35.328125
0.054831;35.343750
0.069347;35.343750
0.046263;35.343750
0.047666;35.375000
0.010023;35.375000
-0.040052;35.375000
-0.042997;35.375000
-0.054789;35.390625
-0.066854;35.390625
-0.065406;35.390625
-0.014594;35.437500
0.001886;35.437500
0.039720;35.437500
0.016822;35.437500
0.029036;35.453125
0.055945;35.453125
0.018264;35.453125
0.035083;35.500000
0.004622;35.500000
0.018166;35.500000
-0.021010;35.500000
-0.064428;35.546875
-0.049262;35.546875
-0.034073;35.546875
0.005713;35.562500
0.029084;35.562500
0.036114;35.562500
0.027224;35.562500
0.016964;35.562500
-0.004625;35.562500
-0.037725;35.562500
0.020611;35.578125
0.020461;35.578125
-0.004643;35.578125
-0.001025;35.578125
-0.008599;35.578125
-0.052863;35.578125
-0.118522;35.578125
-0.047140;35.578125
0.021766;35.593750
0.071110;35.593750
0.142129;35.593750
0.135666;35.640625
0.101488;35.640625
-0.036076;35.640625
-0.117354;35.640625
-0.142136;35.656250
-0.113105;35.656250
-0.059591;35.656250
-0.013136;35.656250
0.067397;35.687500
0.107488;35.687500
0.098631;35.687500
0.057209;35.734375
0.012509;35.734375
-0.026323;35.734375
-0.061636;35.734375
-0.065163;35.750000
-0.002786;35.750000
-0.013577;35.750000
0.011592;35.796875
-0.017872;35.796875
-0.040881;35.796875
-0.017638;35.796875
0.022954;35.812500
0.020011;35.812500
0.009586;35.812500
0.051925;35.828125
0.029429;35.828125
0.056916;35.828125
-0.000090;35.828125
-0.009911;35.859375
-0.004119;35.859375
-0.050607;35.859375
-0.039578;35.859375
-0.029498;35.875000
-0.036278;35.875000
-0.046251;35.875000
0.050797;35.875000
0.015222;35.875000
0.072590;35.875000
0.015387;35.921875
0.019516;35.921875
0.020728;35.921875
-0.041154;35.921875
-0.054712;35.921875
-0.020330;35.921875
-0.016727;35.921875
0.015289;35.968750
0.047007;35.968750
0.053455;35.968750
0.023396;35.984375
-0.004777;35.984375
-0.077824;35.984375
0.028395;35.984375
-0.056895;35.984375
-0.029954;35.984375
-0.020870;35.984375
0.031679;35.984375
0.021614;36.015625
-0.010020;36.015625
0.012349;36.015625
0.035073;36.015625
0.037507;36.015625
0.044123;36.062500
0.032256;36.062500
-0.008583;36.062500
-0.052307;36.062500
-0.087250;36.093750
-0.097482;36.093750
-0.045201;36.093750
0.020983;36.093750
0.052396;36.093750
0.033324;36.109375
0.067185;36.109375
0.072744;36.109375
0.032493;36.109375
-0.020861;36.109375
-0.029719;36.140625
-0.028364;36.140625
-0.012398;36.140625
0.003631;36.140625
0.015722;36.140625
0.021694;36.156250
-0.035116;36.156250
-0.020981;36.156250
-0.043170;36.156250
-0.068881;36.156250
0.027550;36.187500
0.008994;36.187500
0.059737;36.187500
-0.009229;36.187500
-0.006432;36.203125
-0.015958;36.203125
-0.010396;36.203125
0.020620;36.203125
0.018326;36.203125
0.015808;36.218750
0.050032;36.218750
0.032220;36.218750
-0.005677;36.218750
0.015367;36.265625
-0.001122;36.265625
-0.019998;36.265625
-0.064458;36.265625
0.000386;36.265625
-0.006335;36.265625
-0.061451;36.265625
-0.074191;36.312500
-0.021279;36.312500
0.021309;36.312500
0.065516;36.312500
0.085803;36.328125
0.075946;36.328125
0.044415;36.328125
-0.003601;36.375000
-0.091341;36.375000
-0.028566;36.375000
-0.065541;36.375000
0.000950;36.375000
-0.019264;36.375000
0.031429;36.375000
0.039481;36.375000
-0.016598;36.390625
-0.008580;36.390625
0.002377;36.390625
0.016689;36.406250
0.020872;36.406250
0.063102;36.406250
0.018477;36.406250
-0.017761;36.421875
-0.057444;36.421875
-0.091447;36.421875
-0.007974;36.437500
-0.051446;36.437500
0.040586;36.437500
0.007470;36.437500
0.070620;36.484375
0.047553;36.484375
0.034704;36.484375
-0.006693;36.484375
-0.011154;36.500000
-0.017629;36.500000
-0.001149;36.500000
0.005167;36.546875
0.018441;36.546875
0.020235;36.546875
-0.024990;36.546875
-0.075431;36.546875
-0.078930;36.546875
-0.046726;36.546875
-0.003179;36.562500
0.003311;36.562500
0.024185;36.562500
0.060396;36.562500
0.073342;36.578125
0.058612;36.578125
0.031135;36.578125
0.038424;36.625000
-0.005103;36.625000
-0.004216;36.625000
-0.047388;36.625000
-0.053978;36.640625
-0.055270;36.640625
-0.028346;36.640625
-0.002194;36.687500
0.002538;36.687500
-0.025546;36.687500
0.024637;36.703125
0.015562;36.703125
0.021023;36.703125
0.011708;36.703125
0.013345;36.734375
-0.004194;36.734375
-0.020727;36.734375
-0.024083;36.750000
0.020412;36.750000
0.054612;36.750000
0.038136;36.750000
-0.008262;36.750000
-0.006868;36.750000
-0.003414;36.750000
-0.009221;36.765625
-0.069446;36.765625
-0.022570;36.765625
-0.007662;36.765625
-0.006561;36.781250
0.015572;36.781250
-0.003992;36.781250
0.056873;36.828125
0.019656;36.828125
0.007155;36.828125
0.006418;36.828125
-0.003069;36.828125
-0.020631;36.828125
-0.039946;36.828125
-0.021448;36.875000
-0.005403;36.875000
0.028348;36.875000
0.028043;36.875000
0.036549;36.875000
0.025114;36.875000
-0.021278;36.875000
-0.040482;36.875000
-0.021556;36.875000
0.014693;36.875000
0.004168;36.875000
0.024102;36.921875
0.002004;36.921875
0.001577;36.921875
-0.042991;36.921875
-0.077215;36.921875
-0.044458;36.921875
0.008111;36.921875
0.024668;36.937500
0.074735;36.937500
0.076090;36.937500
0.050107;36.937500
0.023342;36.937500
0.001920;36.937500
-0.027431;36.937500
-0.033487;36.984375
-0.063280;36.984375
-0.022601;36.984375
-0.016002;36.984375
0.003345;36.984375
-0.026073;36.984375
-0.006288;36.984375
-0.012457;37.031250
0.045059;37.031250
0.050531;37.031250
0.067297;37.031250
0.008710;37.046875
-0.026487;37.046875
-0.091135;37.046875
-0.124894;37.093750
0.009456;37.093750
0.039599;37.093750
0.075364;37.109375
0.061356;37.109375
0.078632;37.109375
0.054493;37.125000
-0.031715;37.125000
-0.086260;37.125000
-0.044027;37.125000
-0.019006;37.140625
-0.025408;37.140625
-0.018324;37.140625
-0.012641;37.156250
-0.008478;37.156250
0.005505;37.156250
-0.029434;37.171875
0.057217;37.171875
0.063847;37.171875
0.058918;37.171875
0.034967;37.203125
0.052382;37.203125
-0.021003;37.203125
-0.072144;37.203125
-0.097153;37.218750
-0.057343;37.218750
-0.032107;37.218750
-0.020625;37.265625
0.008407;37.265625
0.031249;37.265625
0.028761;37.265625
0.047751;37.281250
0.011032;37.281250
0.072099;37.281250
0.069903;37.328125
0.067475;37.328125
-0.041153;37.328125
-0.049606;37.328125
-0.114558;37.328125
-0.087307;37.328125
-0.048721;37.328125
0.008211;37.375000
0.049762;37.375000
0.055135;37.375000
0.069039;37.375000
0.030147;37.390625
-0.033548;37.390625
-0.058533;37.390625
-0.019433;37.437500
-0.033409;37.437500
-0.042381;37.437500
0.019235;37.437500
0.083765;37.453125
0.108420;37.453125
0.011847;37.453125
-0.009223;37.484375
0.004888;37.484375
-0.005758;37.484375
-0.060695;37.500000
-0.021209;37.500000
-0.062744;37.500000
-0.032508;37.500000
-0.011412;37.546875
-0.015375;37.546875
0.019695;37.546875
0.046738;37.546875
0.044813;37.593750
0.051274;37.593750
0.021549;37.593750
0.007295;37.609375
-0.008149;37.609375
-0.069609;37.609375
-0.040230;37.609375
-0.019047;37.640625
-0.025843;37.640625
0.038002;37.640625
0.036903;37.640625
0.001704;37.656250
-0.016934;37.656250
0.001505;37.656250
-0.035858;37.687500
0.023812;37.687500
0.022128;37.687500
0.059007;37.703125
0.030664;37.703125
0.001938;37.703125
-0.018604;37.703125
-0.023085;37.750000
-0.047776;37.750000
-0.005458;37.750000
0.020696;37.750000
-0.025941;37.750000
-0.036240;37.750000
-0.026862;37.750000
-0.005877;37.781250
0.006814;37.781250
0.017205;37.781250
0.020071;37.781250
0.024870;37.796875
0.015740;37.796875
0.077388;37.796875
0.050134;37.843750
-0.018902;37.843750
-0.052712;37.843750
-0.005241;37.890625
-0.017716;37.890625
-0.052082;37.890625
-0.046004;37.906250
-0.041368;37.906250
-0.024262;37.906250
-0.016287;37.906250
0.065789;37.953125
0.063081;37.953125
0.050761;37.953125
0.066137;37.968750
0.035466;37.968750
0.026101;37.968750
-0.049000;37.968750
-0.084100;37.984375
-0.050877;37.984375
-0.040008;37.984375
-0.020000;38.000000
0.017340;38.000000
0.010243;38.000000
0.027102;38.000000
0.005967;38.000000
-0.012681;38.000000
-0.009248;38.000000
0.046625;38.046875
0.012000;38.046875
0.046172;38.046875
0.021228;38.046875
-0.017966;38.046875
-0.023599;38.046875
-0.055933;38.046875
-0.013901;38.046875
0.010670;38.062500
-0.031797;38.062500
0.031940;38.062500
0.017262;38.109375
-0.002308;38.109375
-0.031983;38.109375
-0.047649;38.125000
0.053741;38.125000
0.006105;38.125000
0.045446;38.125000
0.004752;38.140625
0.064042;38.140625
0.027479;38.140625
-0.018643;38.187500
-0.074142;38.187500
-0.053015;38.187500
-0.012458;38.187500
0.018500;38.203125
-0.019796;38.203125
-0.058994;38.203125
-0.077102;38.218750
-0.001621;38.218750
0.039609;38.218750
0.082885;38.218750
0.135611;38.250000
0.084545;38.250000
0.075439;38.250000
0.008747;38.265625
-0.054794;38.265625
-0.091721;38.265625
-0.089617;38.265625
-0.051193;38.312500
-0.060764;38.312500
-0.063332;38.312500
-0.017993;38.312500
0.004232;38.328125
0.026196;38.328125
0.055797;38.328125
0.056312;38.375000
0.059478;38.375000
0.087056;38.375000
0.068020;38.375000
0.002581;38.406250
-0.040833;38.406250
-0.037650;38.406250
-0.078224;38.406250
-0.077815;38.421875
-0.027803;38.421875
0.001318;38.421875
-0.008683;38.453125
0.040668;38.453125
0.035230;38.453125
0.000960;38.453125
-0.004339;38.453125
0.020300;38.453125
-0.007847;38.453125
-0.021437;38.500000
0.015994;38.500000
0.028973;38.500000
0.056929;38.515625
-0.016390;38.515625
-0.016538;38.515625
-0.047996;38.515625
-0.009954;38.515625
0.024439;38.515625
-0.016810;38.515625
-0.001216;38.515625
-0.003805;38.531250
0.012731;38.531250
0.004725;38.531250
0.018015;38.531250
0.021910;38.531250
-0.035698;38.531250
-0.035372;38.578125
-0.021312;38.578125
-0.042053;38.578125
-0.014868;38.578125
0.008559;38.593750
0.087572;38.593750
0.113533;38.593750
0.064058;38.640625
-0.043846;38.640625
-0.094227;38.640625
-0.098738;38.640625
-0.059186;38.640625
-0.038692;38.640625
0.083365;38.640625
0.065865;38.640625
0.091908;38.671875
0.047415;38.671875
0.043833;38.671875
-0.040940;38.671875
-0.094209;38.671875
-0.054708;38.687500
0.001694;38.687500
0.005460;38.687500
0.001408;38.687500
0.017351;38.734375
-0.008854;38.734375
-0.047561;38.734375
-0.015881;38.734375
-0.041542;38.734375
0.021358;38.765625
0.038370;38.765625
0.070627;38.765625
0.029099;38.765625
0.062345;38.781250
0.004009;38.781250
-0.040848;38.781250
-0.065893;38.781250
-0.038489;38.781250
-0.006243;38.812500
0.027935;38.812500
-0.017188;38.812500
-0.007474;38.812500
-0.016301;38.812500
0.001434;38.812500
