0.129117;0.000000
0.129128;0.093750
0.129129;0.093750
0.129129;0.000000
0.129130;0.109375
0.129133;0.109375
0.129135;0.109375
0.129144;0.109375
0.129187;0.171875
0.129214;0.171875
0.129214;0.171875
0.129252;0.171875
0.129301;0.203125
0.129370;0.203125
0.129393;0.203125
0.129397;0.203125
0.129429;0.203125
0.129456;0.234375
0.129464;0.234375
0.129467;0.234375
0.129474;0.234375
0.129477;0.250000
0.129478;0.250000
0.129497;0.250000
0.129550;0.250000
0.129580;0.296875
0.129582;0.296875
0.129591;0.296875
0.129643;0.312500
0.129741;0.312500
0.129770;0.359375
0.129774;0.359375
0.129812;0.359375
0.129851;0.375000
0.129854;0.375000
0.129854;0.421875
0.129865;0.421875
0.129877;0.421875
0.129878;0.437500
0.129880;0.437500
0.129900;0.453125
0.129915;0.453125
0.129924;0.453125
0.129924;0.500000
0.129984;0.500000
0.130029;0.546875
0.130034;0.546875
0.130037;0.546875
0.130046;0.562500
0.130057;0.562500
0.130059;0.609375
0.130071;0.609375
0.129883;0.609375
0.122241;0.656250
0.122244;0.656250
0.103776;0.656250
0.102466;0.687500
0.098189;0.687500
0.096605;0.687500
0.081289;0.734375
0.076417;0.734375
0.065321;0.734375
0.046116;0.781250
0.043271;0.781250
0.042951;0.781250
0.042835;0.828125
0.039470;0.828125
0.033884;0.828125
0.031439;0.828125
0.028323;0.843750
0.026971;0.843750
0.026488;0.843750
0.025999;0.843750
0.026033;0.843750
0.026037;0.843750
0.026002;0.859375
0.025846;0.859375
0.025354;0.859375
0.023993;0.859375
0.023344;0.890625
0.023292;0.890625
0.023231;0.890625
0.023194;0.890625
0.022492;0.890625
0.022443;0.890625
0.022205;0.890625
0.022139;0.890625
0.022349;0.937500
0.022420;0.937500
0.022281;0.937500
0.022273;0.937500
0.022340;0.984375
0.022367;0.984375
0.022507;0.984375
0.021786;0.984375
0.021802;1.015625
0.022020;1.015625
0.022050;1.015625
0.021738;1.015625
0.021301;1.046875
0.021440;1.046875
0.021486;1.046875
0.021485;1.046875
0.021666;1.062500
0.021926;1.062500
0.022086;1.062500
0.022075;1.062500
0.022091;1.093750
0.022324;1.093750
0.022093;1.093750
0.021936;1.125000
0.021998;1.125000
0.021928;1.125000
0.021636;1.171875
0.021273;1.171875
0.021172;1.171875
0.021188;1.218750
0.021091;1.218750
0.020929;1.250000
0.021160;1.250000
0.021353;1.250000
0.021624;1.250000
0.021610;1.265625
0.021634;1.265625
0.022217;1.265625
0.022314;1.281250
0.022147;1.281250
0.022153;1.281250
0.022302;1.296875
0.022010;1.296875
0.021423;1.296875
0.021254;1.328125
0.021230;1.328125
0.020996;1.328125
0.020834;1.359375
0.021063;1.359375
0.021296;1.359375
0.021314;1.375000
0.021445;1.375000
0.021541;1.375000
0.021703;1.375000
0.021598;1.375000
0.021566;1.390625
0.021695;1.390625
0.021737;1.390625
0.021376;1.390625
0.021187;1.406250
0.021200;1.406250
0.021260;1.406250
0.021208;1.406250
0.021202;1.406250
0.021516;1.406250
0.021519;1.406250
0.021471;1.406250
0.021482;1.421875
0.021546;1.421875
0.021519;1.421875
0.021215;1.421875
0.020977;1.453125
0.021063;1.453125
0.020993;1.453125
0.020938;1.453125
0.020416;1.500000
0.020455;1.500000
0.020360;1.500000
0.020274;1.500000
0.020741;1.515625
0.020905;1.515625
0.020950;1.515625
0.020978;1.515625
0.021120;1.531250
0.021451;1.531250
0.021451;1.531250
0.021151;1.531250
0.020976;1.546875
0.021157;1.546875
0.021011;1.546875
0.020537;1.546875
0.020274;1.734375
0.020223;1.734375
0.020117;1.734375
0.020022;1.734375
0.020200;1.781250
0.020509;1.781250
0.020493;1.781250
0.020502;1.781250
0.020569;1.812500
0.020962;1.812500
0.020922;1.812500
0.020815;1.843750
0.020865;1.843750
0.020963;1.843750
0.020849;1.875000
0.020767;1.875000
0.020626;1.875000
0.020745;1.906250
0.020727;1.906250
0.020980;1.906250
0.021565;1.906250
0.021792;1.937500
0.021810;1.937500
0.021969;1.937500
0.022342;1.953125
0.022781;1.953125
0.022611;1.953125
0.022441;1.984375
0.022436;1.984375
0.022447;1.984375
0.022444;1.984375
0.022214;2.015625
0.022223;2.015625
0.022223;2.015625
0.022168;2.062500
0.022144;2.062500
0.022469;2.062500
0.022558;2.093750
0.022592;2.093750
0.022696;2.093750
0.022970;2.125000
0.023072;2.125000
0.022914;2.125000
0.022719;2.156250
0.022539;2.156250
0.022643;2.156250
0.022689;2.156250
0.022012;2.171875
0.021674;2.171875
0.021705;2.171875
0.021728;2.171875
0.021612;2.171875
0.022004;2.187500
0.022125;2.187500
0.022128;2.187500
0.022343;2.187500
0.022580;2.218750
0.023024;2.218750
0.022837;2.218750
0.022627;2.218750
0.022719;2.234375
0.022620;2.234375
0.022592;2.234375
0.022432;2.234375
0.022422;2.265625
0.022376;2.265625
0.022199;2.265625
0.022277;2.265625
0.022365;2.312500
0.022294;2.312500
0.022327;2.312500
0.022297;2.312500
0.022460;2.328125
0.022485;2.343750
0.022205;2.343750
0.022234;2.343750
0.022251;2.359375
0.022233;2.359375
0.022168;2.359375
0.022233;2.375000
0.022228;2.375000
0.022225;2.375000
0.022131;2.375000
0.022254;2.390625
0.022336;2.390625
0.022465;2.390625
0.022427;2.437500
0.022509;2.437500
0.022643;2.437500
0.022458;2.453125
0.022324;2.453125
0.022273;2.453125
0.022208;2.453125
0.022035;2.453125
0.021720;2.453125
0.021654;2.453125
0.021654;2.453125
0.021623;2.453125
0.021912;2.453125
0.022179;2.500000
0.022378;2.500000
0.022411;2.500000
0.022409;2.546875
0.022460;2.546875
0.022770;2.546875
0.023140;2.593750
0.022950;2.593750
0.022952;2.593750
0.022997;2.593750
0.022941;2.609375
0.022587;2.609375
0.022437;2.609375
0.022437;2.609375
0.022384;2.609375
0.022610;2.609375
0.022944;2.625000
0.023227;2.625000
0.023199;2.625000
0.023210;2.671875
0.023609;2.671875
0.023872;2.671875
0.023374;2.687500
0.023152;2.687500
0.023318;2.703125
0.023190;2.703125
0.022795;2.703125
0.022292;2.750000
0.022286;2.750000
0.022204;2.750000
0.022052;2.765625
0.022178;2.765625
0.022669;2.812500
0.022681;2.812500
0.022669;2.812500
0.022800;2.843750
0.023103;2.843750
0.023342;2.890625
0.023078;2.890625
0.022942;2.906250
0.023284;2.906250
0.023196;2.906250
0.022857;2.937500
0.022809;2.937500
0.022725;2.953125
0.022736;2.953125
0.022662;2.953125
0.022765;2.953125
0.022874;2.968750
0.022886;2.968750
0.022895;2.968750
0.022904;3.015625
0.023271;3.015625
0.023374;3.015625
0.023003;3.062500
0.023061;3.062500
0.023058;3.062500
0.022851;3.062500
0.022652;3.078125
0.022148;3.078125
0.022109;3.078125
0.022116;3.078125
0.022112;3.078125
0.022344;3.078125
0.022527;3.125000
0.022533;3.125000
0.022739;3.125000
0.022930;3.125000
0.023162;3.140625
0.023282;3.140625
0.023216;3.140625
0.023224;3.156250
0.023294;3.156250
0.023267;3.156250
0.023110;3.171875
0.023050;3.171875
0.023039;3.171875
0.022942;3.218750
0.022957;3.218750
0.023208;3.218750
0.023295;3.218750
0.023219;3.234375
0.023319;3.234375
0.023456;3.234375
0.023662;3.281250
0.023737;3.281250
0.023646;3.281250
0.023490;3.328125
0.023586;3.328125
0.023521;3.328125
0.023406;3.328125
0.023172;3.343750
0.023163;3.343750
0.023217;3.343750
0.023347;3.359375
0.023610;3.359375
0.023826;3.359375
0.023796;3.406250
0.023959;3.406250
0.024288;3.406250
0.023993;3.453125
0.023806;3.453125
0.023647;3.453125
0.023651;3.453125
0.023722;3.468750
0.023687;3.468750
0.023372;3.468750
0.022813;3.468750
0.022754;3.468750
0.022811;3.468750
0.022815;3.515625
0.023205;3.515625
0.023280;3.515625
0.023326;3.531250
0.023411;3.531250
0.023525;3.531250
0.023329;3.531250
0.022995;3.546875
0.022746;3.546875
0.022876;3.546875
0.022689;3.546875
0.022290;3.546875
0.021585;3.546875
0.021534;3.593750
0.021548;3.593750
0.021308;3.593750
0.021213;3.609375
0.021393;3.609375
0.021599;3.609375
0.021599;3.609375
0.021723;3.625000
0.021993;3.625000
0.022015;3.625000
0.021483;3.656250
0.021430;3.656250
0.021488;3.656250
0.021386;3.656250
0.021073;3.687500
0.020673;3.687500
0.020633;3.687500
0.020647;3.718750
0.020183;3.718750
0.020367;3.718750
0.020581;3.750000
0.020547;3.750000
0.020555;3.750000
0.020580;3.750000
0.020716;3.765625
0.020638;3.765625
0.020435;3.765625
0.020431;3.796875
0.020344;3.796875
0.020303;3.796875
0.019849;3.828125
0.019635;3.828125
0.019641;3.828125
0.019433;3.859375
0.019536;3.859375
0.019622;3.859375
0.019641;3.859375
0.019617;3.890625
0.019636;3.890625
0.019860;3.890625
0.019913;3.921875
0.019790;3.921875
0.019511;3.921875
0.019599;3.921875
0.019590;3.937500
0.019356;3.937500
0.019091;3.937500
0.018815;3.937500
0.018827;3.953125
0.018804;3.953125
0.018726;3.953125
0.019382;3.953125
0.019657;3.984375
0.019635;3.984375
0.019729;3.984375
0.020392;3.984375
0.021168;4.000000
0.020982;4.000000
0.020904;4.000000
0.020978;4.000000
0.020939;4.000000
0.020862;4.031250
0.020624;4.031250
0.020452;4.031250
0.020453;4.031250
0.020427;4.062500
0.020318;4.062500
0.020348;4.062500
0.020344;4.062500
0.020384;4.062500
0.020475;4.078125
0.020476;4.078125
0.020406;4.078125
0.020100;4.078125
0.019835;4.109375
0.019827;4.109375
0.019631;4.109375
0.019211;4.109375
0.019099;4.109375
0.019001;4.125000
0.018966;4.125000
0.018911;4.125000
0.018939;4.125000
0.019095;4.156250
0.019378;4.156250
0.019415;4.156250
0.019540;4.156250
0.020001;4.187500
0.020173;4.187500
0.019698;4.187500
0.019659;4.187500
0.019755;4.187500
0.019788;4.203125
0.019647;4.203125
0.019559;4.203125
0.019573;4.203125
0.019540;4.234375
0.019416;4.234375
0.019472;4.234375
0.019676;4.234375
0.019681;4.250000
0.019697;4.250000
0.019925;4.250000
0.020067;4.250000
0.020014;4.250000
0.019820;4.281250
0.019623;4.281250
0.019733;4.281250
0.019595;4.281250
0.019446;4.312500
0.019296;4.312500
0.019296;4.312500
0.019297;4.312500
0.019250;4.343750
0.019476;4.343750
0.019537;4.343750
0.019542;4.343750
0.019641;4.375000
0.019792;4.375000
0.020129;4.375000
0.020130;4.375000
0.019884;4.406250
0.019997;4.406250
0.020570;4.406250
0.020732;4.406250
0.020562;4.437500
0.020491;4.437500
0.020550;4.437500
0.020710;4.437500
0.020709;4.437500
0.020767;4.468750
0.021091;4.468750
0.021091;4.468750
0.021083;4.468750
0.021140;4.500000
0.021240;4.500000
0.021248;4.500000
0.021192;4.500000
0.021235;4.531250
0.021260;4.531250
0.021047;4.531250
0.020995;4.531250
0.020777;4.531250
0.020777;4.562500
0.020690;4.562500
0.020523;4.562500
0.021041;4.562500
0.021190;4.562500
0.021179;4.562500
0.021368;4.562500
0.021447;4.562500
0.021532;4.562500
0.020956;4.578125
0.020721;4.578125
0.020723;4.578125
0.020614;4.578125
0.020005;4.593750
0.019124;4.593750
0.018998;4.593750
0.018965;4.593750
0.018894;4.593750
0.018960;4.625000
0.019131;4.625000
0.019363;4.625000
0.019365;4.625000
0.019446;4.625000
0.020080;4.640625
0.020298;4.640625
0.020271;4.640625
0.020280;4.640625
0.020487;4.687500
0.020407;4.687500
0.020347;4.687500
0.020362;4.687500
0.020362;4.687500
0.020367;4.703125
0.020421;4.703125
0.020741;4.703125
0.020862;4.703125
0.020820;4.734375
0.021032;4.734375
0.021190;4.734375
0.021378;4.734375
0.021287;4.750000
0.021206;4.750000
0.021106;4.750000
0.021088;4.781250
0.021029;4.781250
0.020587;4.781250
0.020381;4.812500
0.020398;4.812500
0.020340;4.812500
0.020172;4.812500
0.020104;4.828125
0.020485;4.828125
0.020580;4.828125
0.020632;4.859375
0.020933;4.859375
0.021767;4.859375
0.021999;4.890625
0.021800;4.890625
0.021960;4.890625
0.022027;4.890625
0.021876;4.906250
0.021766;4.906250
0.021787;4.906250
0.021846;4.937500
0.021821;4.937500
0.021826;4.937500
0.021944;4.937500
0.022007;4.968750
0.021983;4.968750
0.022015;4.968750
0.022089;5.000000
0.022231;5.000000
0.022052;5.000000
0.021978;5.015625
0.022047;5.015625
0.022017;5.015625
0.021866;5.015625
0.021588;5.015625
0.021411;5.015625
0.021419;5.015625
0.021294;5.015625
0.020885;5.031250
0.020845;5.031250
0.020940;5.031250
0.020860;5.078125
0.020892;5.078125
0.021295;5.078125
0.021604;5.093750
0.021543;5.093750
0.021273;5.093750
0.021548;5.093750
0.021589;5.093750
0.021533;5.093750
0.021383;5.093750
0.021335;5.140625
0.021337;5.140625
0.021311;5.140625
0.021396;5.187500
0.021741;5.187500
0.021653;5.187500
0.021647;5.187500
0.021885;5.187500
0.022169;5.187500
0.022478;5.187500
0.022034;5.187500
0.022002;5.187500
0.022117;5.203125
0.021906;5.203125
0.021829;5.203125
0.021674;5.250000
0.021664;5.250000
0.021649;5.250000
0.021647;5.296875
0.021765;5.296875
0.021858;5.296875
0.021867;5.312500
0.021873;5.312500
0.021959;5.312500
0.022514;5.343750
0.022663;5.343750
0.022451;5.343750
0.022288;5.375000
0.022456;5.375000
0.022406;5.375000
0.021825;5.390625
0.021594;5.390625
0.021577;5.390625
0.021555;5.390625
0.021312;5.406250
0.021510;5.406250
0.021597;5.406250
0.021532;5.406250
0.021650;5.421875
0.021841;5.421875
0.022283;5.421875
0.022216;5.421875
0.022129;5.437500
0.022324;5.437500
0.022249;5.437500
0.022098;5.437500
0.021914;5.453125
0.021970;5.453125
0.021898;5.453125
0.021753;5.453125
0.021843;5.484375
0.022133;5.484375
0.022355;5.484375
0.022330;5.484375
0.022381;5.500000
0.022786;5.500000
0.023373;5.500000
0.023469;5.500000
0.023136;5.500000
0.023087;5.531250
0.023157;5.531250
0.022876;5.531250
0.022055;5.531250
0.021783;5.546875
0.021795;5.546875
0.021594;5.546875
0.021603;5.546875
0.021606;5.562500
0.021860;5.562500
0.021824;5.562500
0.021800;5.562500
0.022034;5.593750
0.022183;5.593750
0.022293;5.593750
0.022109;5.593750
0.022141;5.625000
0.022136;5.625000
0.022061;5.625000
0.021888;5.625000
0.021848;5.625000
0.021848;5.640625
0.021814;5.640625
0.022061;5.640625
0.022283;5.640625
0.022254;5.671875
0.022270;5.671875
0.022432;5.671875
0.022604;5.671875
0.022648;5.703125
0.022500;5.703125
0.022486;5.703125
0.022574;5.703125
0.022501;5.734375
0.021964;5.734375
0.021869;5.734375
0.021870;5.750000
0.021823;5.750000
0.021628;5.750000
0.022094;5.750000
0.022359;5.796875
0.022380;5.796875
0.022422;5.812500
0.022731;5.812500
0.022846;5.812500
0.022862;5.812500
0.022525;5.843750
0.022450;5.843750
0.022475;5.843750
0.022245;5.843750
0.021956;5.875000
0.021790;5.875000
0.021748;5.875000
0.021623;5.890625
0.021653;5.890625
0.022070;5.890625
0.022708;5.921875
0.022721;5.921875
0.022869;5.921875
0.023126;5.921875
0.023366;5.921875
0.023476;5.921875
0.023373;5.921875
0.023365;5.953125
0.023418;5.953125
0.023343;5.953125
0.022795;5.984375
0.022552;5.984375
0.022543;5.984375
0.022512;5.984375
0.022386;5.984375
0.022546;6.000000
0.022676;6.000000
0.022678;6.000000
0.022876;6.000000
0.023101;6.031250
0.023185;6.031250
0.023044;6.031250
0.022979;6.031250
0.022990;6.062500
0.022966;6.062500
0.022790;6.062500
0.022307;6.062500
0.022072;6.062500
0.022087;6.078125
0.021895;6.078125
0.021831;6.078125
0.021983;6.078125
0.021992;6.109375
0.021953;6.109375
0.021962;6.109375
0.022022;6.109375
0.022020;6.140625
0.021657;6.140625
0.021368;6.140625
0.021401;6.140625
0.021344;6.140625
0.020929;6.171875
0.020310;6.171875
0.020228;6.171875
0.020214;6.171875
0.020150;6.187500
0.020447;6.187500
0.021216;6.187500
0.021597;6.187500
0.021591;6.203125
0.022118;6.203125
0.022871;6.203125
0.023184;6.203125
0.023128;6.203125
0.022940;6.234375
0.023033;6.234375
0.023089;6.234375
0.022887;6.234375
0.022645;6.234375
0.022448;6.250000
0.022432;6.250000
0.022418;6.250000
0.022531;6.250000
0.022935;6.265625
0.022982;6.265625
0.023112;6.265625
0.023442;6.265625
0.023650;6.281250
0.023453;6.281250
0.023248;6.281250
0.023278;6.281250
0.023279;6.281250
0.023121;6.312500
0.022947;6.312500
0.022753;6.312500
0.022752;6.312500
0.022667;6.312500
0.022593;6.312500
0.022709;6.312500
0.022837;6.312500
0.022661;6.328125
0.022666;6.328125
0.022938;6.328125
0.023159;6.375000
0.022684;6.375000
0.022452;6.375000
0.022476;6.421875
0.022439;6.421875
0.022132;6.421875
0.022140;6.453125
0.022077;6.453125
0.022075;6.453125
0.022085;6.453125
0.022130;6.468750
0.022261;6.468750
0.022551;6.468750
0.022448;6.515625
0.022624;6.515625
0.022906;6.515625
0.023146;6.515625
0.022814;6.531250
0.022374;6.531250
0.022394;6.531250
0.022307;6.531250
0.022044;6.546875
0.021922;6.546875
0.021692;6.546875
0.021666;6.562500
0.021667;6.562500
0.021880;6.562500
0.022215;6.609375
0.022235;6.609375
0.022219;6.609375
0.022482;6.609375
0.022537;6.625000
0.022584;6.625000
0.022461;6.625000
0.022328;6.671875
0.022430;6.671875
0.022334;6.671875
0.022119;6.687500
0.022031;6.687500
0.021967;6.687500
0.021946;6.687500
0.021993;6.703125
0.021903;6.703125
0.022033;6.703125
0.022263;6.718750
0.022302;6.718750
0.022290;6.718750
0.022567;6.718750
0.022647;6.734375
0.022502;6.734375
0.022834;6.734375
0.022897;6.781250
0.022893;6.781250
0.022866;6.781250
0.022771;6.781250
0.022774;6.796875
0.022873;6.796875
0.022843;6.796875
0.023081;6.812500
0.023472;6.812500
0.023667;6.812500
0.023662;6.859375
0.023880;6.859375
0.024546;6.859375
0.024296;6.859375
0.023627;6.875000
0.023527;6.875000
0.023738;6.875000
0.023238;6.921875
0.022497;6.921875
0.022136;6.937500
0.022139;6.937500
0.022088;6.937500
0.022001;6.984375
0.022107;6.984375
0.022391;7.000000
0.022423;7.000000
0.022433;7.000000
0.022641;7.000000
0.022816;7.000000
0.022792;7.031250
0.022374;7.031250
0.022326;7.031250
0.022195;7.031250
0.021853;7.046875
0.021589;7.046875
0.021496;7.062500
0.021492;7.062500
0.021473;7.062500
0.021436;7.109375
0.021559;7.109375
0.021777;7.109375
0.021792;7.125000
0.021905;7.125000
0.022223;7.140625
0.022713;7.140625
0.022622;7.140625
0.022493;7.140625
0.022574;7.140625
0.022617;7.140625
0.022334;7.140625
0.022034;7.187500
0.022019;7.187500
0.022042;7.187500
0.021981;7.187500
0.022001;7.203125
0.022135;7.203125
0.022067;7.203125
0.022083;7.250000
0.022378;7.250000
0.022629;7.250000
0.022817;7.250000
0.022684;7.265625
0.022473;7.265625
0.022565;7.265625
0.022461;7.312500
0.022187;7.312500
0.021842;7.312500
0.021795;7.359375
0.021597;7.359375
0.021557;7.359375
0.021641;7.375000
0.021955;7.375000
0.021933;7.375000
0.021947;7.375000
0.022200;7.421875
0.022494;7.421875
0.022463;7.421875
0.022170;7.437500
0.022174;7.437500
0.022512;7.437500
0.022327;7.437500
0.022284;7.437500
0.022168;7.437500
0.022122;7.437500
0.022185;7.437500
0.022245;7.453125
0.022163;7.453125
0.022366;7.453125
0.022373;7.453125
0.022485;7.453125
0.022506;7.453125
0.022493;7.453125
0.022520;7.468750
0.022402;7.468750
0.022224;7.468750
0.022247;7.515625
0.022230;7.515625
0.021946;7.515625
0.021816;7.515625
0.021835;7.531250
0.021632;7.531250
0.021540;7.531250
0.021582;7.578125
0.021705;7.578125
0.021734;7.578125
0.021756;7.578125
0.021831;7.593750
0.022079;7.593750
0.021849;7.593750
0.021467;7.609375
0.021472;7.609375
0.021452;7.609375
0.021205;7.609375
0.020565;7.625000
0.020475;7.625000
0.020500;7.625000
0.020215;7.640625
0.020076;7.640625
0.020324;7.640625
0.020407;7.640625
0.020340;7.687500
0.020546;7.687500
0.020771;7.687500
0.021076;7.687500
0.020862;7.703125
0.020649;7.703125
0.020688;7.703125
0.020674;7.750000
0.020453;7.750000
0.020241;7.750000
0.020115;7.750000
0.020121;7.765625
0.020118;7.765625
0.020194;7.765625
0.020463;7.812500
0.020558;7.812500
0.020559;7.812500
0.020657;7.812500
0.020995;7.828125
0.021435;7.828125
0.021419;7.828125
0.021288;7.875000
0.021620;7.875000
0.021823;7.875000
0.021592;7.875000
0.021100;7.890625
0.021106;7.890625
0.021173;7.890625
0.021117;7.937500
0.021146;7.937500
0.021337;7.937500
0.021433;7.937500
0.021444;7.984375
0.021591;7.984375
0.021749;7.984375
0.022026;7.984375
0.021908;8.015625
0.021866;8.015625
0.021972;8.015625
0.021792;8.062500
0.021566;8.062500
0.021295;8.062500
0.021319;8.109375
0.021233;8.109375
0.021044;8.109375
0.020988;8.109375
0.020988;8.125000
0.021016;8.125000
0.021058;8.125000
0.021196;8.125000
0.021463;8.140625
0.021470;8.140625
0.021150;8.140625
0.021139;8.156250
0.021285;8.156250
0.021058;8.156250
0.020870;8.156250
0.020736;8.156250
0.020715;8.156250
0.020797;8.156250
0.020507;8.156250
0.020558;8.171875
0.020622;8.171875
0.020625;8.171875
0.020780;8.171875
0.021120;8.171875
0.021394;8.171875
0.021750;8.171875
0.021515;8.203125
0.021756;8.203125
0.021943;8.203125
0.022043;8.250000
0.021989;8.250000
0.021963;8.250000
0.021960;8.250000
0.021961;8.250000
0.021914;8.250000
0.022035;8.250000
0.022170;8.296875
0.022205;8.296875
0.022194;8.296875
0.022118;8.296875
0.022374;8.296875
0.022660;8.296875
0.022500;8.296875
0.022465;8.343750
0.022445;8.343750
0.022279;8.343750
0.022045;8.343750
0.022019;8.390625
0.022030;8.390625
0.021781;8.390625
0.021891;8.390625
0.022029;8.406250
0.022054;8.406250
0.022005;8.406250
0.022121;8.406250
0.022321;8.406250
0.022525;8.406250
0.022343;8.406250
0.022266;8.421875
0.022379;8.421875
0.022197;8.421875
0.021966;8.437500
0.021723;8.437500
0.021735;8.437500
0.021695;8.437500
0.021637;8.468750
0.021748;8.468750
0.022169;8.468750
0.022320;8.468750
0.022326;8.468750
0.022609;8.468750
0.022994;8.468750
0.023303;8.484375
0.023072;8.484375
0.023152;8.484375
0.023352;8.531250
0.023322;8.531250
0.023030;8.531250
0.022786;8.531250
0.022740;8.546875
0.022693;8.546875
0.022359;8.546875
0.022436;8.546875
0.022875;8.578125
0.023007;8.578125
0.023001;8.578125
0.023133;8.578125
0.023336;8.609375
0.023514;8.609375
0.023346;8.609375
0.023252;8.609375
0.023304;8.609375
0.023131;8.625000
0.022953;8.625000
0.022632;8.625000
0.022610;8.625000
0.022578;8.671875
0.022393;8.671875
0.022421;8.671875
0.022734;8.671875
0.022726;8.671875
0.022750;8.687500
0.022942;8.687500
0.023409;8.687500
0.023610;8.687500
0.023646;8.718750
0.023870;8.718750
0.023965;8.718750
0.023852;8.718750
0.023633;8.718750
0.023527;8.750000
0.023594;8.750000
0.023525;8.750000
0.023387;8.750000
0.023434;8.781250
0.023461;8.781250
0.023390;8.781250
0.023374;8.781250
0.023325;8.781250
0.023294;8.812500
0.023222;8.812500
0.023154;8.812500
0.023144;8.843750
0.023021;8.843750
0.022662;8.843750
0.022347;8.890625
0.022054;8.890625
0.022044;8.890625
0.021810;8.890625
0.021597;8.906250
0.021808;8.906250
0.022349;8.906250
0.022345;8.953125
0.022484;8.953125
0.022671;8.953125
0.023018;8.953125
0.023010;9.000000
0.022881;9.000000
0.022906;9.000000
0.022910;9.046875
0.022839;9.046875
0.022593;9.046875
0.022305;9.078125
0.022307;9.078125
0.022312;9.078125
0.022494;9.078125
0.022605;9.078125
0.022727;9.078125
0.022856;9.078125
0.023148;9.093750
0.023747;9.093750
0.023728;9.093750
0.023611;9.140625
0.023563;9.140625
0.023876;9.140625
0.023822;9.140625
0.023643;9.156250
0.023366;9.156250
0.023331;9.156250
0.023377;9.171875
0.023287;9.171875
0.023451;9.171875
0.023639;9.171875
0.023772;9.218750
0.023785;9.218750
0.023866;9.218750
0.024265;9.218750
0.024318;9.234375
0.023925;9.234375
0.023866;9.234375
0.023886;9.281250
0.023619;9.281250
0.023244;9.281250
0.022924;9.281250
0.022913;9.296875
0.022752;9.296875
0.022609;9.296875
0.022867;9.343750
0.023110;9.343750
0.022942;9.343750
0.022895;9.343750
0.023249;9.375000
0.023620;9.375000
0.023396;9.375000
0.022897;9.390625
0.022967;9.390625
0.022970;9.390625
0.022787;9.390625
0.022604;9.437500
0.022356;9.437500
0.022403;9.437500
0.022425;9.453125
0.022391;9.453125
0.022640;9.453125
0.022879;9.453125
0.022879;9.453125
0.022880;9.453125
0.023266;9.453125
0.023599;9.453125
0.023641;9.484375
0.023291;9.484375
0.023475;9.484375
0.023460;9.531250
0.023275;9.531250
0.022890;9.531250
0.022671;9.531250
0.022624;9.531250
0.022310;9.531250
0.022190;9.531250
0.022386;9.578125
0.022933;9.578125
0.022887;9.578125
0.022853;9.578125
0.023162;9.593750
0.023689;9.593750
0.023669;9.593750
0.023530;9.609375
0.023606;9.609375
0.023645;9.609375
0.023600;9.609375
0.023583;9.656250
0.023539;9.656250
0.023567;9.656250
0.023578;9.656250
0.023584;9.671875
0.023703;9.671875
0.023727;9.671875
0.023700;9.718750
0.023780;9.718750
0.023945;9.718750
0.024253;9.718750
0.024029;9.765625
0.023580;9.765625
0.023604;9.765625
0.023458;9.781250
0.023229;9.781250
0.022891;9.781250
0.022781;9.828125
0.022776;9.828125
0.022731;9.828125
0.023140;9.828125
0.023587;9.859375
0.023856;9.859375
0.023815;9.859375
0.024027;9.890625
0.024827;9.890625
0.025349;9.890625
0.025345;9.890625
0.025231;9.906250
0.025211;9.906250
0.025048;9.906250
0.024510;9.953125
0.024381;9.953125
0.024371;9.953125
0.024274;9.953125
0.023992;9.968750
0.024044;9.968750
0.024267;9.968750
0.024270;10.015625
0.024303;10.015625
0.024470;10.015625
0.024722;10.015625
0.024761;10.031250
0.024602;10.031250
0.024518;10.031250
0.024609;10.078125
0.024469;10.078125
0.024061;10.078125
0.023895;10.078125
0.023895;10.078125
0.023804;10.078125
0.023858;10.078125
0.024030;10.125000
0.024186;10.125000
0.024127;10.125000
0.024218;10.125000
0.024571;10.125000
0.024718;10.125000
0.024514;10.125000
0.024355;10.171875
0.024388;10.171875
0.024422;10.171875
0.024053;10.171875
0.023722;10.218750
0.023581;10.218750
0.023619;10.218750
0.023436;10.218750
0.023440;10.234375
0.023694;10.234375
0.023764;10.234375
0.023782;10.281250
0.023736;10.281250
0.023756;10.281250
0.024054;10.296875
0.023864;10.296875
0.023635;10.296875
0.023757;10.296875
0.023879;10.296875
0.023526;10.296875
0.023332;10.296875
0.023351;10.312500
0.023427;10.312500
0.023243;10.312500
0.023455;10.312500
0.023861;10.359375
0.024164;10.359375
0.024155;10.359375
0.024168;10.359375
0.024252;10.359375
0.024527;10.359375
0.024341;10.359375
0.023846;10.406250
0.023850;10.406250
0.023814;10.406250
0.023572;10.406250
0.023092;10.406250
0.023042;10.406250
0.023053;10.406250
0.022981;10.453125
0.023239;10.453125
0.023728;10.453125
0.023759;10.453125
0.023761;10.468750
0.023892;10.468750
0.024026;10.468750
0.024237;10.515625
0.024179;10.515625
0.024088;10.515625
0.024086;10.515625
0.024036;10.531250
0.023858;10.531250
0.023498;10.531250
0.023423;10.578125
0.023358;10.578125
0.023471;10.578125
0.023910;10.578125
0.024092;10.593750
0.024084;10.593750
0.024200;10.593750
0.024783;10.640625
0.025405;10.640625
0.025133;10.640625
0.024751;10.640625
0.024735;10.656250
0.024968;10.656250
0.024763;10.656250
0.023960;10.703125
0.023264;10.703125
0.023152;10.703125
0.023146;10.703125
0.023049;10.718750
0.022934;10.718750
0.022967;10.718750
0.022969;10.750000
0.022981;10.750000
0.023190;10.750000
0.023237;10.750000
0.023107;10.796875
0.022863;10.796875
0.022845;10.796875
0.022891;10.796875
0.022682;10.812500
0.022387;10.812500
0.022151;10.812500
0.022129;10.859375
0.022016;10.859375
0.021887;10.859375
0.021949;10.859375
0.022055;10.859375
0.022046;10.890625
0.022212;10.890625
0.022362;10.890625
0.022645;10.890625
0.022480;10.890625
0.022478;10.921875
0.022554;10.921875
0.022818;10.921875
0.022445;10.921875
0.022238;10.921875
0.022155;10.953125
0.022105;10.953125
0.022045;10.953125
0.022071;10.953125
0.022221;10.984375
0.022212;10.984375
0.022246;10.984375
0.022277;10.984375
0.022460;10.984375
0.022634;11.015625
0.022360;11.015625
0.022282;11.015625
0.022374;11.031250
0.022373;11.031250
0.022334;11.031250
0.022002;11.031250
0.021939;11.031250
0.021939;11.031250
0.021801;11.031250
0.021842;11.078125
0.021936;11.078125
0.021826;11.078125
0.021613;11.078125
0.021802;11.093750
0.022200;11.093750
0.022221;11.093750
0.021781;11.140625
0.021502;11.140625
0.021585;11.140625
0.021609;11.140625
0.021523;11.156250
0.021185;11.156250
0.021199;11.156250
0.021205;11.203125
0.021185;11.203125
0.021401;11.203125
0.021488;11.218750
0.021453;11.218750
0.021442;11.218750
0.021540;11.218750
0.021757;11.218750
0.021529;11.218750
0.020985;11.250000
0.020959;11.250000
0.020958;11.250000
0.020771;11.250000
0.020667;11.296875
0.020389;11.296875
0.020309;11.296875
0.020272;11.296875
0.020233;11.312500
0.020457;11.312500
0.020748;11.312500
0.020929;11.312500
0.020938;11.312500
0.020993;11.328125
0.021610;11.328125
0.021681;11.328125
0.021496;11.328125
0.021485;11.343750
0.021405;11.343750
0.020758;11.343750
0.019959;11.359375
0.019847;11.359375
0.019829;11.359375
0.019516;11.359375
0.019272;11.359375
0.019432;11.359375
0.019769;11.359375
0.019828;11.359375
0.019833;11.375000
0.020060;11.375000
0.020477;11.375000
0.020671;11.421875
0.020613;11.421875
0.020695;11.421875
0.020677;11.421875
0.020436;11.468750
0.020369;11.468750
0.020419;11.468750
0.020463;11.515625
0.020466;11.515625
0.020634;11.515625
0.021057;11.515625
0.021387;11.515625
0.021417;11.515625
0.021465;11.515625
0.021935;11.562500
0.022536;11.562500
0.022692;11.562500
0.022591;11.562500
0.022677;11.578125
0.022586;11.578125
0.022437;11.578125
0.022081;11.625000
0.022060;11.625000
0.021892;11.625000
0.021820;11.640625
0.021590;11.640625
0.022101;11.640625
0.022308;11.640625
0.022298;11.687500
0.022595;11.687500
0.022891;11.687500
0.023243;11.687500
0.023159;11.718750
0.023134;11.718750
0.023259;11.718750
0.023197;11.718750
0.022975;11.718750
0.022759;11.718750
0.022792;11.718750
0.022726;11.750000
0.022612;11.750000
0.022714;11.750000
0.022770;11.796875
0.022756;11.796875
0.022756;11.796875
0.022806;11.796875
0.022808;11.812500
0.022674;11.812500
0.022566;11.812500
0.022528;11.859375
0.022528;11.859375
0.022303;11.859375
0.022084;11.859375
0.022109;11.875000
0.022150;11.875000
0.022042;11.875000
0.022353;11.921875
0.022965;11.921875
0.023246;11.921875
0.023270;11.921875
0.023417;11.937500
0.023633;11.937500
0.024044;11.937500
0.023884;11.984375
0.023783;11.984375
0.023784;11.984375
0.023848;11.984375
0.023752;11.984375
0.023529;11.984375
0.023527;11.984375
0.023528;12.031250
0.023483;12.031250
0.023524;12.031250
0.023639;12.031250
0.023769;12.046875
0.023762;12.046875
0.023768;12.046875
0.024075;12.093750
0.024447;12.093750
0.024585;12.093750
0.024379;12.093750
0.024540;12.125000
0.024950;12.125000
0.025063;12.125000
0.024412;12.156250
0.024182;12.156250
0.024285;12.156250
0.024430;12.156250
0.024392;12.171875
0.024504;12.171875
0.024768;12.171875
0.024752;12.171875
0.024764;12.171875
0.024842;12.171875
0.024996;12.171875
0.024885;12.187500
0.024646;12.187500
0.024695;12.187500
0.024692;12.187500
0.024526;12.187500
0.024176;12.187500
0.024113;12.234375
0.024103;12.234375
0.024051;12.234375
0.024050;12.234375
0.024054;12.250000
0.024058;12.250000
0.024015;12.250000
0.024058;12.296875
0.024428;12.296875
0.024238;12.296875
0.023989;12.296875
0.023791;12.328125
0.023807;12.328125
0.023796;12.328125
0.023378;12.375000
0.022980;12.375000
0.022883;12.375000
0.022887;12.375000
0.022823;12.375000
0.022954;12.390625
0.023091;12.390625
0.023177;12.390625
0.023212;12.390625
0.023388;12.421875
0.023603;12.421875
0.023770;12.421875
0.023312;12.421875
0.023174;12.437500
0.023699;12.437500
0.023421;12.437500
0.023189;12.437500
0.023104;12.437500
0.023179;12.468750
0.023289;12.468750
0.023185;12.468750
0.023492;12.468750
0.023590;12.484375
0.023673;12.484375
0.023642;12.484375
0.023676;12.515625
0.023800;12.515625
0.023879;12.515625
0.023858;12.515625
0.023909;12.546875
0.023920;12.546875
0.023878;12.546875
0.023981;12.593750
0.023984;12.593750
0.023980;12.593750
0.023973;12.593750
0.024020;12.593750
0.024384;12.593750
0.024350;12.593750
0.024098;12.640625
0.024141;12.640625
0.024175;12.640625
0.023987;12.640625
0.023458;12.656250
0.023179;12.656250
0.023136;12.656250
0.023037;12.703125
0.022815;12.703125
0.022381;12.703125
0.022388;12.703125
0.022326;12.703125
0.022395;12.703125
0.022444;12.703125
0.022648;12.703125
0.022842;12.718750
0.022750;12.718750
0.022754;12.718750
0.022881;12.750000
0.023143;12.750000
0.023135;12.750000
0.022940;12.765625
0.023125;12.765625
0.023144;12.765625
0.022827;12.765625
0.022437;12.796875
0.022093;12.796875
0.022048;12.796875
0.021655;12.796875
0.021341;12.796875
0.021438;12.796875
0.021584;12.796875
0.021335;12.812500
0.021265;12.812500
0.021288;12.812500
0.021528;12.812500
0.021374;12.828125
0.021059;12.828125
0.021183;12.828125
0.021181;12.843750
0.021096;12.843750
0.020908;12.843750
0.020890;12.859375
0.020869;12.859375
0.020720;12.859375
0.020947;12.859375
0.021059;12.859375
0.021157;12.859375
0.021043;12.859375
0.021135;12.875000
0.021393;12.875000
0.021591;12.875000
0.021587;12.875000
0.021602;12.875000
0.021647;12.875000
0.021590;12.875000
0.021180;12.890625
0.021292;12.890625
0.021143;12.890625
0.021064;12.890625
0.021078;12.937500
0.021391;12.937500
0.021537;12.937500
0.021345;12.953125
0.021275;12.953125
0.021453;12.953125
0.021640;12.953125
0.021647;12.953125
0.021508;12.953125
0.021476;12.953125
0.021462;12.953125
0.021301;12.968750
0.021076;12.968750
0.020745;12.968750
0.020713;13.015625
0.020616;13.015625
0.020007;13.015625
0.019993;13.015625
0.019927;13.031250
0.019528;13.031250
0.019485;13.031250
0.019423;13.078125
0.019365;13.078125
0.018966;13.078125
0.018849;13.078125
0.018746;13.078125
0.018763;13.078125
0.018716;13.078125
0.018552;13.125000
0.018364;13.125000
0.018459;13.125000
0.018416;13.125000
0.018768;13.171875
0.019578;13.171875
0.019888;13.171875
0.019890;13.171875
0.020310;13.187500
0.020828;13.187500
0.021080;13.187500
0.020629;13.234375
0.020546;13.234375
0.020545;13.234375
0.020587;13.234375
0.020503;13.250000
0.020298;13.250000
0.020189;13.250000
0.020237;13.296875
0.020239;13.296875
0.020262;13.296875
0.020324;13.296875
0.020337;13.296875
0.020424;13.296875
0.020813;13.296875
0.020835;13.296875
0.020916;13.312500
0.020692;13.312500
0.020551;13.312500
0.020983;13.359375
0.021177;13.359375
0.021040;13.359375
0.020795;13.359375
0.020719;13.406250
0.020800;13.406250
0.020654;13.406250
0.020645;13.406250
0.021044;13.421875
0.021091;13.421875
0.021051;13.421875
0.021094;13.468750
0.021097;13.468750
0.020985;13.468750
0.020698;13.468750
0.020537;13.484375
0.020502;13.484375
0.020451;13.484375
0.020260;13.515625
0.020030;13.515625
0.020107;13.515625
0.020132;13.515625
0.020050;13.531250
0.020412;13.531250
0.020940;13.531250
0.020951;13.578125
0.020954;13.578125
0.021130;13.578125
0.021448;13.578125
0.021410;13.578125
0.021305;13.578125
0.021260;13.578125
0.021201;13.625000
0.021105;13.625000
0.020895;13.625000
0.020733;13.625000
0.020756;13.640625
0.020714;13.640625
0.020804;13.640625
0.020865;13.671875
0.020989;13.671875
0.020846;13.671875
0.020891;13.671875
0.021378;13.671875
0.021724;13.671875
0.021380;13.671875
0.021386;13.671875
0.021638;13.703125
0.021591;13.703125
0.021412;13.703125
0.021200;13.750000
0.021188;13.750000
0.021256;13.750000
0.021194;13.765625
0.021308;13.765625
0.021630;13.765625
0.021807;13.765625
0.021794;13.796875
0.021928;13.796875
0.022127;13.796875
0.022335;13.812500
0.022385;13.812500
0.022392;13.812500
0.022489;13.812500
0.022653;13.812500
0.022598;13.812500
0.022621;13.812500
0.022646;13.812500
0.022662;13.828125
0.022669;13.828125
0.022812;13.828125
0.023017;13.828125
0.023044;13.828125
0.023017;13.828125
0.022949;13.875000
0.023213;13.875000
0.023259;13.875000
0.022629;13.875000
0.022362;13.875000
0.022469;13.875000
0.022252;13.875000
0.021825;13.875000
0.021544;13.890625
0.021591;13.890625
0.021608;13.890625
0.021601;13.906250
0.021546;13.906250
0.021705;13.906250
0.021782;13.906250
0.021815;13.921875
0.021922;13.921875
0.022054;13.921875
0.022084;13.953125
0.021979;13.953125
0.022163;13.953125
0.022345;13.953125
0.022002;13.968750
0.021927;13.968750
0.021955;13.968750
0.021999;13.984375
0.021947;13.984375
0.021540;13.984375
0.021522;13.984375
0.021807;14.015625
0.021748;14.015625
0.021704;14.015625
0.021754;14.015625
0.021907;14.031250
0.021940;14.031250
0.021554;14.031250
0.021545;14.031250
0.021550;14.031250
0.021506;14.031250
0.021511;14.046875
0.021532;14.046875
0.021545;14.046875
0.021542;14.046875
0.021727;14.062500
0.022264;14.062500
0.022615;14.062500
0.022576;14.093750
0.022791;14.093750
0.023131;14.093750
0.023614;14.093750
0.023346;14.109375
0.022873;14.109375
0.022860;14.109375
0.022909;14.140625
0.022852;14.140625
0.022624;14.140625
0.022505;14.140625
0.022496;14.156250
0.022566;14.156250
0.022562;14.156250
0.022664;14.218750
0.022746;14.218750
0.022712;14.218750
0.022787;14.218750
0.022899;14.234375
0.023534;14.234375
0.023483;14.234375
0.023371;14.250000
0.023566;14.250000
0.023600;14.250000
0.023154;14.250000
0.022781;14.250000
0.022797;14.250000
0.022688;14.250000
0.022457;14.265625
0.022574;14.265625
0.022733;14.265625
0.022924;14.265625
0.022732;14.281250
0.022783;14.281250
0.022930;14.281250
0.023170;14.296875
0.022881;14.296875
0.022687;14.296875
0.022762;14.296875
0.022705;14.296875
0.022528;14.296875
0.022322;14.296875
0.022241;14.312500
0.022233;14.312500
0.022134;14.312500
0.022143;14.312500
0.022161;14.328125
0.022214;14.328125
0.022189;14.328125
0.022341;14.359375
0.022715;14.359375
0.022861;14.359375
0.022674;14.359375
0.022755;14.375000
0.022876;14.375000
0.022883;14.375000
0.022592;14.390625
0.022260;14.390625
0.022322;14.390625
0.022219;14.390625
0.022070;14.406250
0.022199;14.406250
0.022251;14.406250
0.022260;14.453125
0.022208;14.453125
0.022146;14.453125
0.022188;14.453125
0.022281;14.468750
0.022155;14.468750
0.022078;14.468750
0.022093;14.500000
0.021944;14.500000
0.021820;14.500000
0.021731;14.500000
0.021750;14.515625
0.021560;14.515625
0.021432;14.515625
0.021864;14.562500
0.022184;14.562500
0.021960;14.562500
0.021917;14.578125
0.022123;14.578125
0.022608;14.578125
0.022706;14.578125
0.022453;14.593750
0.022467;14.593750
0.022552;14.593750
0.022455;14.609375
0.022249;14.609375
0.022229;14.609375
0.022230;14.609375
0.022177;14.640625
0.022392;14.640625
0.022727;14.640625
0.022917;14.640625
0.022872;14.656250
0.023107;14.656250
0.023325;14.656250
0.023299;14.656250
0.022791;14.656250
0.022452;14.656250
0.022478;14.671875
0.022297;14.671875
0.021927;14.671875
0.021452;14.671875
0.021375;14.687500
0.021374;14.687500
0.021366;14.687500
0.021459;14.734375
0.021818;14.734375
0.021817;14.734375
0.021822;14.734375
0.021974;14.750000
0.022037;14.750000
0.022598;14.750000
0.022515;14.765625
0.022458;14.765625
0.022569;14.765625
0.022477;14.781250
0.022472;14.781250
0.021723;14.781250
0.021695;14.781250
0.021720;14.781250
0.021502;14.781250
0.021429;14.781250
0.021408;14.828125
0.021403;14.828125
0.021533;14.828125
0.021868;14.828125
0.022129;14.843750
0.022033;14.843750
0.021870;14.843750
0.021976;14.843750
0.022425;14.843750
0.022381;14.843750
0.022250;14.859375
0.021889;14.859375
0.021845;14.859375
0.021844;14.859375
0.021819;14.875000
0.021832;14.875000
0.022003;14.875000
0.022141;14.921875
0.022240;14.921875
0.022358;14.921875
0.022733;14.921875
0.022518;14.937500
0.022503;14.937500
0.022451;14.937500
0.022674;14.937500
0.022500;14.937500
0.022119;14.937500
0.021800;14.937500
0.021776;14.953125
0.021649;14.953125
0.021542;14.953125
0.021595;14.953125
0.021709;14.953125
0.021700;14.953125
0.021587;14.968750
0.021809;14.968750
0.022089;14.968750
0.021965;14.968750
0.021869;15.015625
0.021873;15.015625
0.021956;15.015625
0.021951;15.062500
0.021909;15.062500
0.021741;15.062500
0.021712;15.062500
0.021721;15.078125
0.021703;15.078125
0.021894;15.078125
0.022025;15.078125
0.021991;15.093750
0.022041;15.093750
0.022095;15.093750
0.022376;15.140625
0.022089;15.140625
0.021716;15.140625
0.021815;15.140625
0.021978;15.156250
0.021750;15.156250
0.021242;15.156250
0.020961;15.156250
0.021056;15.156250
0.021009;15.156250
0.021063;15.203125
0.021292;15.203125
0.021393;15.203125
0.021359;15.203125
0.021506;15.218750
0.021775;15.218750
0.021894;15.250000
0.021546;15.250000
0.021382;15.250000
0.021508;15.265625
0.021247;15.265625
0.021013;15.265625
0.020894;15.265625
0.020908;15.265625
0.020949;15.265625
0.020986;15.312500
0.020997;15.312500
0.021018;15.312500
0.020960;15.312500
0.020961;15.312500
0.021162;15.312500
0.021323;15.312500
0.021293;15.328125
0.020797;15.328125
0.020744;15.328125
0.020787;15.328125
0.020610;15.328125
0.020471;15.328125
0.019866;15.328125
0.019844;15.375000
0.019883;15.375000
0.019959;15.375000
0.020187;15.375000
0.020277;15.375000
0.020229;15.375000
0.020420;15.375000
0.020711;15.390625
0.021459;15.390625
0.021672;15.390625
0.021686;15.390625
0.021785;15.406250
0.021946;15.406250
0.021642;15.406250
0.021373;15.421875
0.021390;15.421875
0.021391;15.421875
0.021083;15.421875
0.020837;15.421875
0.021043;15.421875
0.021115;15.421875
0.021141;15.437500
0.021575;15.437500
0.022096;15.437500
0.022574;15.437500
0.022610;15.437500
0.022498;15.437500
0.022554;15.437500
0.022561;15.484375
0.022479;15.484375
0.022114;15.484375
0.022086;15.484375
0.022123;15.500000
0.022091;15.500000
0.021861;15.500000
0.021873;15.515625
0.021920;15.515625
0.021931;15.515625
0.022071;15.515625
0.022399;15.515625
0.022765;15.515625
0.022704;15.515625
0.022657;15.562500
0.022660;15.562500
0.022948;15.562500
0.022748;15.562500
0.022489;15.562500
0.022320;15.562500
0.022331;15.562500
0.022313;15.562500
0.022310;15.578125
0.022429;15.578125
0.022435;15.578125
0.022569;15.625000
0.023000;15.625000
0.023576;15.625000
0.023831;15.640625
0.023651;15.640625
0.023763;15.640625
0.024007;15.640625
0.023953;15.687500
0.023910;15.687500
0.023481;15.687500
0.023353;15.687500
0.023370;15.703125
0.023277;15.703125
0.023335;15.703125
0.023501;15.718750
0.023576;15.718750
0.023607;15.718750
0.023538;15.718750
0.023863;15.765625
0.024062;15.765625
0.023840;15.765625
0.023792;15.781250
0.023898;15.781250
0.023796;15.781250
0.023642;15.781250
0.023320;15.781250
0.023346;15.781250
0.023567;15.781250
0.023429;15.828125
0.023530;15.828125
0.023641;15.828125
0.023678;15.828125
0.023647;15.843750
0.023631;15.843750
0.023822;15.843750
0.023791;15.890625
0.023767;15.890625
0.023911;15.890625
0.023998;15.890625
0.023875;15.906250
0.023709;15.906250
0.023627;15.906250
0.023641;15.937500
0.023789;15.937500
0.023707;15.937500
0.023736;15.937500
0.023720;15.968750
0.023706;15.968750
0.023787;15.968750
0.023680;15.968750
0.023600;15.984375
0.023399;15.984375
0.023407;15.984375
0.023555;16.031250
0.023565;16.031250
0.023305;16.031250
0.022690;16.031250
0.022604;16.046875
0.022618;16.046875
0.022531;16.046875
0.022245;16.046875
0.022283;16.046875
0.022331;16.046875
0.022289;16.062500
0.022291;16.062500
0.022378;16.062500
0.022269;16.062500
0.022001;16.078125
0.021898;16.078125
0.021953;16.078125
0.021553;16.125000
0.021017;16.125000
0.020574;16.125000
0.020651;16.125000
0.020574;16.125000
0.020379;16.125000
0.020666;16.125000
0.021588;16.140625
0.021833;16.140625
0.021867;16.140625
0.022177;16.140625
0.022856;16.140625
0.023288;16.140625
0.023337;16.140625
0.023319;16.156250
0.023550;16.156250
0.023513;16.156250
0.023221;16.156250
0.022867;16.171875
0.022820;16.171875
0.022759;16.171875
0.022756;16.218750
0.022585;16.218750
0.022620;16.218750
0.022725;16.218750
0.022810;16.234375
0.022928;16.234375
0.023179;16.234375
0.023425;16.250000
0.023299;16.250000
0.023307;16.250000
0.023357;16.250000
0.022943;16.250000
0.022342;16.250000
0.022041;16.250000
0.022094;16.296875
0.021832;16.296875
0.021607;16.296875
0.021651;16.296875
0.021667;16.312500
0.021700;16.312500
0.021740;16.312500
0.022071;16.328125
0.022298;16.328125
0.022253;16.328125
0.022088;16.328125
0.022147;16.375000
0.022300;16.375000
0.022406;16.375000
0.022068;16.375000
0.021707;16.390625
0.021712;16.390625
0.021666;16.390625
0.021547;16.390625
0.021592;16.390625
0.021552;16.390625
0.021601;16.406250
0.021659;16.406250
0.021768;16.406250
0.022047;16.406250
0.021931;16.421875
0.021856;16.421875
0.022223;16.421875
0.022278;16.421875
0.022236;16.421875
0.021993;16.421875
0.021920;16.421875
0.021920;16.437500
0.021725;16.437500
0.021750;16.437500
0.021890;16.484375
0.021884;16.484375
0.021993;16.484375
0.022080;16.484375
0.021890;16.500000
0.022000;16.500000
0.021980;16.500000
0.021960;16.546875
0.022030;16.546875
0.021941;16.546875
0.021928;16.546875
0.021947;16.578125
0.022018;16.578125
0.021950;16.578125
0.022004;16.609375
0.022058;16.609375
0.022088;16.609375
0.022018;16.609375
0.022224;16.609375
0.022459;16.609375
0.022780;16.609375
0.023042;16.625000
0.022944;16.625000
0.023057;16.625000
0.023341;16.625000
0.023473;16.640625
0.023403;16.640625
0.023319;16.640625
0.023317;16.687500
0.023313;16.687500
0.023217;16.687500
0.023201;16.687500
0.023248;16.687500
0.023328;16.687500
0.023191;16.687500
0.023309;16.734375
0.023692;16.734375
0.023698;16.734375
0.022827;16.734375
0.022688;16.750000
0.022842;16.750000
0.022569;16.750000
0.021886;16.765625
0.021429;16.765625
0.021365;16.765625
0.021363;16.765625
0.021097;16.812500
0.021081;16.812500
0.021172;16.812500
0.021178;16.828125
0.021307;16.828125
0.021608;16.828125
0.021779;16.828125
0.021853;16.828125
0.021798;16.828125
0.021903;16.828125
0.022198;16.875000
0.022437;16.875000
0.022174;16.875000
0.022119;16.875000
0.022463;16.890625
0.022755;16.890625
0.022568;16.890625
0.022782;16.937500
0.023043;16.937500
0.023313;16.937500
0.023278;16.953125
0.023286;16.953125
0.023478;16.953125
0.023539;16.953125
0.023510;17.000000
0.023528;17.000000
0.023475;17.000000
0.023155;17.015625
0.023073;17.015625
0.022928;17.015625
0.022919;17.015625
0.022793;17.062500
0.022700;17.062500
0.022589;17.062500
0.022681;17.062500
0.022709;17.078125
0.022705;17.078125
0.022843;17.078125
0.023025;17.125000
0.023002;17.125000
0.022945;17.125000
0.022913;17.125000
0.022883;17.125000
0.022563;17.125000
0.022291;17.125000
0.022309;17.171875
0.022267;17.171875
0.021819;17.171875
0.021807;17.171875
0.021899;17.187500
0.022176;17.187500
0.022182;17.187500
0.022183;17.203125
0.022336;17.203125
0.022760;17.203125
0.022608;17.203125
0.022608;17.203125
0.022506;17.203125
0.022471;17.203125
0.022466;17.250000
0.022390;17.250000
0.022378;17.250000
0.022352;17.250000
0.022324;17.265625
0.022389;17.265625
0.022545;17.265625
0.022598;17.312500
0.022534;17.312500
0.022585;17.312500
0.022666;17.312500
0.022784;17.328125
0.022854;17.328125
0.022888;17.328125
0.022697;17.343750
0.022457;17.343750
0.022119;17.343750
0.021837;17.343750
0.021898;17.343750
0.021721;17.343750
0.021498;17.343750
0.021359;17.359375
0.021528;17.359375
0.021945;17.359375
0.021950;17.359375
0.021955;17.359375
0.022240;17.359375
0.022798;17.359375
0.022966;17.359375
0.022769;17.375000
0.022867;17.375000
0.022752;17.375000
0.022337;17.421875
0.021942;17.421875
0.021955;17.421875
0.021850;17.437500
0.021692;17.437500
0.021794;17.437500
0.021822;17.437500
0.021827;17.437500
0.021840;17.437500
0.022099;17.437500
0.022432;17.453125
0.022482;17.453125
0.022379;17.453125
0.022399;17.453125
0.022382;17.453125
0.022093;17.453125
0.021915;17.453125
0.021749;17.468750
0.021759;17.468750
0.021530;17.468750
0.021172;17.468750
0.020945;17.515625
0.021112;17.515625
0.020826;17.515625
0.020576;17.515625
0.020519;17.562500
0.020777;17.562500
0.020560;17.562500
0.020283;17.578125
0.020038;17.578125
0.020155;17.578125
0.020144;17.578125
0.019880;17.625000
0.019752;17.625000
0.019759;17.625000
0.019692;17.640625
0.019776;17.640625
0.019948;17.640625
0.019874;17.640625
0.019941;17.687500
0.020063;17.687500
0.020103;17.687500
0.020224;17.734375
0.020191;17.734375
0.020080;17.734375
0.020223;17.734375
0.020212;17.765625
0.020144;17.765625
0.019974;17.765625
0.019945;17.796875
0.019949;17.796875
0.019929;17.796875
0.020384;17.796875
0.021124;17.812500
0.021530;17.812500
0.021512;17.812500
0.021917;17.859375
0.022866;17.859375
0.023587;17.859375
0.023570;17.875000
0.023369;17.875000
0.023460;17.875000
0.023682;17.875000
0.023792;17.921875
0.023291;17.921875
0.023266;17.921875
0.023438;17.921875
0.023461;17.937500
0.023427;17.937500
0.023564;17.937500
0.023604;17.937500
0.023652;17.937500
0.023818;17.937500
0.023943;17.953125
0.023898;17.953125
0.023768;17.953125
0.023640;17.953125
0.023725;18.000000
0.023556;18.000000
0.023276;18.000000
0.022943;18.000000
0.022818;18.000000
0.022865;18.000000
0.022734;18.000000
0.022813;18.000000
0.023015;18.015625
0.023114;18.015625
0.023112;18.015625
0.023162;18.015625
0.023507;18.015625
0.023659;18.015625
0.023486;18.062500
0.023137;18.062500
0.023324;18.062500
0.023340;18.062500
0.023097;18.093750
0.022546;18.093750
0.022409;18.093750
0.022589;18.140625
0.022512;18.140625
0.022633;18.140625
0.022632;18.156250
0.022858;18.156250
0.023045;18.156250
0.023207;18.171875
0.023241;18.171875
0.023093;18.171875
0.023174;18.171875
0.023351;18.171875
0.023533;18.171875
0.023284;18.171875
0.023011;18.187500
0.022909;18.187500
0.022924;18.187500
0.022869;18.187500
0.022843;18.234375
0.023214;18.234375
0.023298;18.234375
0.023286;18.250000
0.023504;18.250000
0.023669;18.250000
0.023814;18.250000
0.023733;18.296875
0.023690;18.296875
0.023806;18.296875
0.023748;18.312500
0.023503;18.312500
0.023287;18.312500
0.023278;18.312500
0.023265;18.312500
0.023216;18.312500
0.023234;18.312500
0.023340;18.328125
0.023358;18.328125
0.023439;18.328125
0.023690;18.328125
0.023957;18.328125
0.023900;18.328125
0.023826;18.328125
0.023849;18.343750
0.023918;18.343750
0.023805;18.343750
0.023803;18.343750
0.023771;18.343750
0.023804;18.343750
0.023841;18.343750
0.023711;18.390625
0.023823;18.390625
0.024195;18.390625
0.024284;18.390625
0.024269;18.437500
0.024360;18.437500
0.024527;18.437500
0.024155;18.453125
0.023591;18.453125
0.023222;18.453125
0.023354;18.453125
0.023149;18.500000
0.022264;18.500000
0.021451;18.500000
0.021388;18.500000
0.021613;18.515625
0.021628;18.515625
0.021407;18.515625
0.021267;18.515625
0.021290;18.515625
0.021308;18.515625
0.021234;18.562500
0.021269;18.562500
0.021240;18.562500
0.021208;18.562500
0.021293;18.578125
0.021377;18.578125
0.021187;18.578125
0.021167;18.625000
0.021265;18.625000
0.021241;18.625000
0.021253;18.625000
0.021289;18.625000
0.021407;18.625000
0.021624;18.625000
0.021630;18.625000
0.021756;18.640625
0.021963;18.640625
0.022390;18.640625
0.022297;18.687500
0.022231;18.687500
0.022210;18.687500
0.022158;18.687500
0.022106;18.703125
0.021663;18.703125
0.021517;18.703125
0.021538;18.750000
0.021502;18.750000
0.021418;18.750000
0.021898;18.750000
0.022392;18.765625
0.022384;18.765625
0.022496;18.765625
0.022745;18.812500
0.023090;18.812500
0.023022;18.812500
0.023024;18.812500
0.022855;18.828125
0.022732;18.828125
0.022583;18.828125
0.022514;18.875000
0.022500;18.875000
0.022398;18.875000
0.022235;18.890625
0.022200;18.890625
0.022297;18.890625
0.022359;18.890625
0.022364;18.937500
0.022485;18.937500
0.022853;18.937500
0.023210;18.937500
0.022851;18.968750
0.022815;18.968750
0.022914;18.968750
0.022676;18.968750
0.022503;18.968750
0.022315;18.968750
0.022318;18.968750
0.022254;18.984375
0.022140;18.984375
0.022089;18.984375
0.022372;19.031250
0.022455;19.031250
0.022439;19.031250
0.022545;19.046875
0.023024;19.046875
0.023210;19.046875
0.023125;19.046875
0.023119;19.046875
0.023069;19.046875
0.022842;19.046875
0.022594;19.046875
0.022582;19.062500
0.022504;19.062500
0.022405;19.062500
0.022335;19.078125
0.022510;19.078125
0.022626;19.078125
0.022466;19.078125
0.022458;19.109375
0.022785;19.109375
0.023374;19.109375
0.023332;19.125000
0.023081;19.125000
0.023221;19.125000
0.023388;19.125000
0.023377;19.125000
0.023338;19.125000
0.023469;19.125000
0.023344;19.171875
0.023361;19.171875
0.023283;19.171875
0.023362;19.171875
0.023802;19.187500
0.023948;19.187500
0.023943;19.187500
0.023778;19.234375
0.024197;19.234375
0.024433;19.234375
0.024308;19.250000
0.024347;19.250000
0.024469;19.250000
0.024374;19.250000
0.024298;19.281250
0.024327;19.281250
0.024284;19.281250
0.024157;19.281250
0.024070;19.281250
0.024140;19.281250
0.024396;19.281250
0.024303;19.328125
0.024328;19.328125
0.024500;19.328125
0.024670;19.328125
0.024631;19.343750
0.024466;19.343750
0.024584;19.343750
0.024596;19.359375
0.024352;19.359375
0.024054;19.359375
0.024053;19.359375
0.023958;19.359375
0.023881;19.359375
0.024024;19.359375
0.024100;19.406250
0.024170;19.406250
0.024153;19.406250
0.024226;19.453125
0.024513;19.453125
0.024513;19.453125
0.024069;19.468750
0.023669;19.468750
0.023853;19.468750
0.023692;19.468750
0.023290;19.484375
0.022926;19.484375
0.022907;19.484375
0.022905;19.531250
0.022853;19.531250
0.022805;19.531250
0.023058;19.531250
0.023199;19.546875
0.023199;19.546875
0.023210;19.546875
0.023275;19.593750
0.023303;19.593750
0.023289;19.593750
0.023290;19.593750
0.023260;19.609375
0.023286;19.609375
0.022970;19.609375
0.022539;19.656250
0.022525;19.656250
0.022494;19.656250
0.022384;19.671875
0.022487;19.671875
0.022522;19.671875
0.022556;19.671875
0.022514;19.718750
0.022470;19.718750
0.022598;19.718750
0.022681;19.734375
0.022389;19.734375
0.022294;19.734375
0.022319;19.734375
0.022227;19.734375
0.021756;19.734375
0.021455;19.734375
0.021510;19.750000
0.021499;19.750000
0.021633;19.750000
0.021818;19.750000
0.022214;19.750000
0.022257;19.750000
0.022399;19.750000
0.022676;19.765625
0.023213;19.765625
0.023065;19.765625
0.022909;19.765625
0.023227;19.765625
0.023314;19.765625
0.022956;19.765625
0.022469;19.765625
0.022497;19.781250
0.022304;19.781250
0.022056;19.781250
0.022022;19.828125
0.022337;19.828125
0.022732;19.828125
0.022562;19.828125
0.022651;19.843750
0.023003;19.843750
0.023532;19.843750
0.023311;19.859375
0.022842;19.859375
0.023045;19.859375
0.023163;19.859375
0.023042;19.859375
0.022587;19.859375
0.022576;19.859375
0.022649;19.906250
0.022624;19.906250
0.022751;19.906250
0.023265;19.906250
0.023566;19.921875
0.023534;19.921875
0.023579;19.921875
0.023859;19.968750
0.024058;19.968750
0.024009;19.968750
0.023705;19.984375
0.023947;19.984375
0.023919;19.984375
0.023709;19.984375
0.023431;20.031250
0.023363;20.031250
0.023354;20.031250
0.023205;20.031250
0.023142;20.031250
0.023203;20.031250
0.023135;20.031250
0.023217;20.062500
0.023229;20.062500
0.023422;20.062500
0.023268;20.062500
0.023206;20.078125
0.023233;20.078125
0.023328;20.078125
0.023337;20.078125
0.023010;20.093750
0.022916;20.093750
0.022929;20.093750
0.022887;20.093750
0.022696;20.093750
0.022861;20.093750
0.022958;20.109375
0.022910;20.109375
0.022957;20.109375
0.023177;20.109375
0.023309;20.125000
0.023304;20.125000
0.023099;20.125000
0.023125;20.171875
0.023244;20.171875
0.023223;20.171875
0.023141;20.171875
0.023039;20.187500
0.022945;20.187500
0.022906;20.187500
0.022899;20.203125
0.022866;20.203125
0.022970;20.203125
0.023049;20.203125
0.023071;20.203125
0.023073;20.203125
0.023096;20.203125
0.023091;20.218750
0.023057;20.218750
0.023080;20.218750
0.023043;20.218750
0.023178;20.234375
0.023150;20.234375
0.023080;20.234375
0.023163;20.281250
0.023224;20.281250
0.023605;20.281250
0.023898;20.281250
0.024028;20.296875
0.023990;20.296875
0.024118;20.296875
0.024196;20.312500
0.024424;20.312500
0.024242;20.312500
0.023856;20.312500
0.023815;20.359375
0.023680;20.359375
0.023417;20.359375
0.022838;20.359375
0.022814;20.421875
0.022816;20.421875
0.022485;20.437500
0.022490;20.437500
0.022697;20.437500
0.022631;20.437500
0.022540;20.484375
0.022674;20.484375
0.022907;20.484375
0.022804;20.531250
0.022406;20.531250
0.021883;20.531250
0.021935;20.546875
0.021875;20.546875
0.021556;20.546875
0.021013;20.546875
0.021030;20.546875
0.020985;20.546875
0.020615;20.546875
0.020851;20.562500
0.021252;20.562500
0.021202;20.562500
0.020949;20.562500
0.021071;20.562500
0.021319;20.562500
0.021254;20.562500
0.020693;20.562500
0.020358;20.578125
0.020448;20.578125
0.020331;20.578125
0.019983;20.578125
0.019706;20.578125
0.019682;20.578125
0.019552;20.578125
0.019248;20.578125
0.019516;20.578125
0.019792;20.625000
0.019764;20.625000
0.019808;20.625000
0.020024;20.640625
0.020237;20.640625
0.020350;20.640625
0.020247;20.640625
0.020279;20.687500
0.020308;20.687500
0.020254;20.687500
0.020252;20.687500
0.020254;20.687500
0.020403;20.687500
0.020605;20.687500
0.020802;20.734375
0.020822;20.734375
0.020849;20.734375
0.020971;20.750000
0.021376;20.750000
0.022085;20.750000
0.022921;20.750000
0.022822;20.750000
0.022871;20.750000
0.023631;20.750000
0.023916;20.796875
0.023777;20.796875
0.023655;20.796875
0.023639;20.796875
0.023571;20.812500
0.023429;20.812500
0.023314;20.812500
0.023316;20.859375
0.023309;20.859375
0.023260;20.859375
0.023368;20.875000
0.023384;20.875000
0.023459;20.875000
0.023329;20.875000
0.023273;20.875000
0.023357;20.875000
0.023414;20.875000
0.023417;20.921875
0.023389;20.921875
0.023296;20.921875
0.023293;20.921875
0.023237;20.921875
0.023386;20.937500
0.023305;20.937500
0.023186;20.937500
0.023195;20.937500
0.023247;20.984375
0.023322;20.984375
0.023263;20.984375
0.022969;20.984375
0.022811;20.984375
0.022959;20.984375
0.023033;20.984375
0.023109;21.031250
0.022703;21.031250
0.022716;21.031250
0.022766;21.046875
0.022785;21.046875
0.022859;21.046875
0.023036;21.046875
0.023120;21.093750
0.023187;21.093750
0.023420;21.093750
0.023844;21.109375
0.023939;21.109375
0.023764;21.109375
0.024120;21.109375
0.024791;21.109375
0.024670;21.109375
0.024520;21.109375
0.024667;21.125000
0.024765;21.125000
0.024913;21.125000
0.024872;21.125000
0.025016;21.156250
0.025131;21.156250
0.025251;21.156250
0.025206;21.156250
0.025220;21.156250
0.025494;21.187500
0.025222;21.187500
0.024889;21.187500
0.024830;21.187500
0.024840;21.187500
0.024727;21.203125
0.024453;21.203125
0.024238;21.203125
0.024231;21.203125
0.024250;21.203125
0.024175;21.234375
0.024190;21.234375
0.024208;21.234375
0.024246;21.234375
0.024322;21.250000
0.024429;21.250000
0.024571;21.250000
0.024438;21.250000
0.024291;21.250000
0.024579;21.281250
0.024708;21.281250
0.024523;21.281250
0.024396;21.281250
0.024242;21.281250
0.024241;21.296875
0.024202;21.296875
0.024154;21.296875
0.024351;21.296875
0.024206;21.296875
0.024234;21.312500
0.024216;21.312500
0.024105;21.312500
0.024130;21.312500
0.024013;21.343750
0.024015;21.343750
0.024011;21.343750
0.023667;21.343750
0.022965;21.343750
0.022138;21.375000
0.022066;21.375000
0.021904;21.375000
0.021083;21.375000
0.020775;21.375000
0.021137;21.390625
0.021256;21.390625
0.021263;21.390625
0.021440;21.390625
0.021729;21.421875
0.021998;21.421875
0.022004;21.421875
0.022033;21.421875
0.021997;21.421875
0.021876;21.453125
0.021786;21.453125
0.021719;21.453125
0.021723;21.453125
0.021721;21.453125
0.021575;21.468750
0.021782;21.468750
0.022274;21.468750
0.022442;21.515625
0.022471;21.515625
0.022779;21.515625
0.023685;21.515625
0.023995;21.515625
0.023932;21.515625
0.024025;21.515625
0.024012;21.562500
0.023890;21.562500
0.023757;21.562500
0.023433;21.562500
0.023443;21.578125
0.023478;21.578125
0.023378;21.578125
0.023252;21.593750
0.023132;21.593750
0.023147;21.593750
0.023225;21.593750
0.023397;21.593750
0.023537;21.593750
0.023594;21.593750
0.023433;21.593750
0.023389;21.609375
0.023421;21.609375
0.023186;21.609375
0.022756;21.656250
0.022627;21.656250
0.022607;21.656250
0.022158;21.671875
0.021436;21.671875
0.021759;21.671875
0.021811;21.671875
0.021603;21.671875
0.021580;21.671875
0.021433;21.671875
0.021508;21.687500
0.021366;21.687500
0.021155;21.687500
0.020929;21.687500
0.020924;21.734375
0.020915;21.734375
0.020587;21.734375
0.020555;21.781250
0.020550;21.781250
0.020565;21.781250
0.020794;21.781250
0.020923;21.796875
0.020996;21.796875
0.020997;21.796875
0.021120;21.843750
0.021234;21.843750
0.021423;21.843750
0.021452;21.843750
0.021475;21.859375
0.021521;21.859375
0.021566;21.859375
0.021446;21.906250
0.021311;21.906250
0.021227;21.906250
0.021242;21.906250
0.020943;21.906250
0.020884;21.906250
0.021098;21.906250
0.021304;21.953125
0.021301;21.953125
0.021338;21.953125
0.021497;21.953125
0.021875;21.968750
0.021752;21.968750
0.021716;21.968750
0.021780;22.015625
0.021728;22.015625
0.021542;22.015625
0.021393;22.062500
0.021397;22.062500
0.021363;22.062500
0.021264;22.062500
0.021521;22.062500
0.021754;22.062500
0.021837;22.062500
0.021907;22.109375
0.022287;22.109375
0.022559;22.109375
0.022588;22.109375
0.022214;22.109375
0.022233;22.109375
0.022255;22.109375
0.022084;22.125000
0.021817;22.125000
0.021575;22.125000
0.021562;22.125000
0.021532;22.125000
0.021539;22.125000
0.021766;22.125000
0.021907;22.125000
0.021915;22.140625
0.021934;22.140625
0.022214;22.140625
0.022601;22.187500
0.022404;22.187500
0.021890;22.187500
0.021783;22.187500
0.021917;22.203125
0.022004;22.203125
0.021028;22.203125
0.020675;22.218750
0.020810;22.218750
0.020861;22.218750
0.020890;22.218750
0.021003;22.218750
0.021385;22.218750
0.021394;22.218750
0.021360;22.265625
0.021327;22.265625
0.021754;22.265625
0.021856;22.265625
0.021815;22.265625
0.021971;22.265625
0.021854;22.265625
0.021610;22.312500
0.021463;22.312500
0.021377;22.312500
0.021364;22.312500
0.021282;22.328125
0.021340;22.328125
0.021744;22.328125
0.022042;22.375000
0.021949;22.375000
0.022015;22.375000
0.022288;22.375000
0.022715;22.390625
0.022458;22.390625
0.022308;22.390625
0.022358;22.390625
0.022292;22.390625
0.022246;22.390625
0.022162;22.406250
0.022099;22.406250
0.022093;22.406250
0.022080;22.406250
0.022173;22.406250
0.022255;22.406250
0.022243;22.406250
0.022235;22.421875
0.022304;22.421875
0.022340;22.421875
0.022163;22.421875
0.022009;22.468750
0.021950;22.468750
0.021946;22.468750
0.021827;22.484375
0.021790;22.484375
0.021719;22.484375
0.021851;22.484375
0.021810;22.500000
0.021915;22.500000
0.021816;22.500000
0.021814;22.546875
0.021834;22.546875
0.021828;22.546875
0.021722;22.593750
0.022073;22.593750
0.021949;22.593750
0.021773;22.593750
0.021711;22.609375
0.021771;22.609375
0.021740;22.609375
0.021570;22.640625
0.021167;22.640625
0.021111;22.640625
0.021114;22.640625
0.020998;22.656250
0.021039;22.656250
0.021429;22.656250
0.021333;22.656250
0.021332;22.656250
0.021505;22.656250
0.021953;22.703125
0.021775;22.703125
0.021534;22.703125
0.021463;22.703125
0.021393;22.703125
0.021003;22.703125
0.020712;22.703125
0.020562;22.718750
0.020514;22.718750
0.020366;22.718750
0.020346;22.718750
0.020657;22.734375
0.020622;22.734375
0.020586;22.734375
0.020726;22.781250
0.020841;22.781250
0.021113;22.781250
0.021121;22.781250
0.020974;22.781250
0.020987;22.781250
0.021043;22.781250
0.020712;22.828125
0.020251;22.828125
0.020213;22.828125
0.020224;22.828125
0.020141;22.843750
0.019966;22.843750
0.019542;22.843750
0.019686;22.890625
0.019537;22.890625
0.019707;22.890625
0.020130;22.890625
0.020128;22.906250
0.020349;22.906250
0.020562;22.906250
0.020594;22.953125
0.020619;22.953125
0.020950;22.953125
0.020799;22.953125
0.020654;22.968750
0.020651;22.968750
0.020516;22.968750
0.020783;22.984375
0.021151;22.984375
0.021315;22.984375
0.021401;22.984375
0.021496;23.031250
0.021511;23.031250
0.021346;23.031250
0.020982;23.031250
0.020665;23.031250
0.020659;23.031250
0.020669;23.031250
0.020617;23.046875
0.020171;23.046875
0.020143;23.046875
0.020147;23.046875
0.020150;23.046875
0.020661;23.046875
0.021188;23.046875
0.021260;23.093750
0.021256;23.093750
0.021415;23.093750
0.021962;23.093750
0.022052;23.109375
0.022010;23.109375
0.022090;23.109375
0.022147;23.125000
0.022088;23.125000
0.022043;23.125000
0.022034;23.125000
0.022005;23.125000
0.022023;23.125000
0.022155;23.125000
0.022998;23.140625
0.023413;23.140625
0.023343;23.140625
0.023412;23.140625
0.024093;23.140625
0.024390;23.140625
0.024534;23.140625
0.024534;23.140625
0.024609;23.156250
0.024931;23.156250
0.024933;23.156250
0.024627;23.203125
0.024631;23.203125
0.024599;23.203125
0.024441;23.218750
0.024407;23.218750
0.024467;23.218750
0.024636;23.218750
0.024611;23.234375
0.024570;23.234375
0.024678;23.234375
0.025242;23.234375
0.025310;23.250000
0.024979;23.250000
0.024923;23.250000
0.025005;23.281250
0.024856;23.281250
0.024441;23.281250
0.024353;23.281250
0.024350;23.296875
0.024340;23.296875
0.024624;23.296875
0.025035;23.343750
0.025262;23.343750
0.025312;23.343750
0.025479;23.343750
0.025848;23.390625
0.026130;23.390625
0.025950;23.390625
0.025952;23.437500
0.025975;23.437500
0.025947;23.437500
0.025868;23.437500
0.025636;23.437500
0.025440;23.437500
0.025486;23.437500
0.025461;23.453125
0.025406;23.453125
0.025505;23.453125
0.025577;23.453125
0.025541;23.453125
0.025600;23.453125
0.025634;23.453125
0.025692;23.468750
0.025701;23.468750
0.025604;23.468750
0.025682;23.468750
0.025471;23.484375
0.025007;23.484375
0.025272;23.484375
0.024995;23.500000
0.024513;23.500000
0.024470;23.500000
0.024677;23.500000
0.024599;23.515625
0.024381;23.515625
0.024355;23.515625
0.024448;23.562500
0.024701;23.562500
0.024755;23.562500
0.024463;23.562500
0.024445;23.578125
0.024589;23.578125
0.024522;23.578125
0.024514;23.625000
0.024542;23.625000
0.024510;23.625000
0.024508;23.671875
0.024525;23.671875
0.024609;23.671875
0.024504;23.671875
0.024505;23.718750
0.024515;23.718750
0.024655;23.718750
0.024838;23.718750
0.024547;23.734375
0.024093;23.734375
0.024015;23.734375
0.024061;23.734375
0.023922;23.734375
0.023446;23.734375
0.023340;23.734375
0.023304;23.750000
0.023232;23.750000
0.023187;23.750000
0.023335;23.796875
0.023530;23.796875
0.023499;23.796875
0.023551;23.796875
0.024135;23.796875
0.024724;23.796875
0.024040;23.796875
0.023758;23.843750
0.024370;23.843750
0.024581;23.843750
0.023898;23.843750
0.023716;23.859375
0.023869;23.859375
0.023951;23.859375
0.023839;23.906250
0.023514;23.906250
0.023690;23.906250
0.023862;23.906250
0.023884;23.921875
0.023883;23.921875
0.023869;23.921875
0.024119;23.968750
0.024119;23.968750
0.023998;23.968750
0.024073;23.968750
0.024103;23.984375
0.023987;23.984375
0.023451;23.984375
0.023381;24.031250
0.023417;24.031250
0.023400;24.031250
0.023566;24.078125
0.023821;24.078125
0.023905;24.078125
0.023896;24.078125
0.024064;24.093750
0.024260;24.093750
0.024100;24.093750
0.023689;24.109375
0.023505;24.109375
0.023512;24.109375
0.023377;24.109375
0.023028;24.109375
0.022793;24.109375
0.022748;24.109375
0.022795;24.156250
0.022769;24.156250
0.022846;24.156250
0.023232;24.156250
0.023315;24.156250
0.023317;24.156250
0.023375;24.156250
0.023585;24.171875
0.023734;24.171875
0.023594;24.171875
0.023522;24.187500
0.023612;24.187500
0.023537;24.187500
0.023500;24.187500
0.023433;24.187500
0.023404;24.187500
0.023393;24.187500
0.023277;24.187500
0.023382;24.203125
0.023532;24.203125
0.023220;24.203125
0.023335;24.250000
0.023431;24.250000
0.023464;24.250000
0.023319;24.250000
0.023117;24.265625
0.023142;24.265625
0.023054;24.265625
0.022948;24.296875
0.022753;24.296875
0.022449;24.296875
0.022423;24.312500
0.056831;24.312500
0.089658;24.312500
0.101945;24.312500
0.113400;24.312500
0.114103;24.312500
0.123086;24.312500
0.127932;24.359375
0.129904;24.359375
0.130342;24.359375
0.130528;24.359375
0.134382;24.375000
0.134764;24.375000
0.134803;24.375000
0.136410;24.421875
0.136385;24.421875
0.136515;24.421875
0.136517;24.421875
0.136649;24.437500
0.136785;24.437500
0.136784;24.437500
0.136776;24.453125
0.136778;24.453125
0.136799;24.453125
0.136849;24.453125
0.136838;24.453125
0.136813;24.453125
0.136819;24.484375
0.137067;24.484375
0.136970;24.484375
0.136849;24.484375
0.136881;24.484375
0.136942;24.500000
0.136913;24.500000
0.136842;24.500000
0.136874;24.500000
0.136824;24.500000
0.136925;24.531250
0.136928;24.531250
0.136975;24.531250
0.136987;24.531250
0.136956;24.531250
0.136927;24.546875
0.136994;24.546875
0.137042;24.546875
0.137044;24.593750
0.137006;24.593750
0.137064;24.593750
0.137142;24.609375
0.137131;0.000000
0.137126;0.000000
0.137125;24.609375
0.137132;24.609375
0.137117;24.609375
0.137116;24.609375
0.137115;24.625000
0.137072;24.625000
0.137047;24.625000
0.137030;24.625000
0.137068;24.640625
0.137091;24.640625
0.137107;24.640625
0.137080;24.640625
0.137094;24.640625
0.137142;24.640625
0.137190;24.640625
0.137189;24.640625
0.137183;24.656250
0.137167;24.656250
0.137167;24.656250
0.137153;24.703125
0.137153;24.703125
0.137125;24.703125
0.137057;24.703125
0.137043;24.718750
0.137062;24.718750
0.137071;24.718750
0.137048;24.765625
0.137021;24.765625
0.137040;24.765625
0.137074;24.765625
0.137127;24.781250
0.137127;24.781250
0.137132;24.781250
0.137155;24.796875
0.137164;24.796875
0.137163;24.796875
0.137210;24.796875
0.137188;24.843750
0.137163;24.843750
0.137169;24.843750
0.137194;24.843750
0.137193;24.859375
0.137195;24.859375
0.137182;24.859375
0.137186;24.906250
0.137226;24.906250
0.137250;24.906250
0.137251;24.921875
0.137239;24.921875
0.137246;24.921875
0.137250;24.921875
0.126900;24.921875
0.106216;24.921875
0.094502;24.937500
0.080413;24.937500
0.079414;24.937500
0.064786;24.984375
0.055002;24.984375
0.050208;24.984375
0.049066;24.984375
0.048791;25.000000
0.037357;25.000000
0.036160;25.000000
0.035916;25.015625
0.029206;25.015625
0.029348;25.015625
0.028767;25.015625
0.028762;25.062500
0.028148;25.062500
0.027478;25.062500
0.027465;25.109375
0.027581;25.109375
0.027693;25.109375
0.027828;25.109375
0.027576;25.109375
0.027654;25.109375
0.027928;25.109375
0.028057;25.156250
0.026769;25.156250
0.026723;25.156250
0.026793;25.156250
0.026566;25.171875
0.026052;25.171875
0.025609;25.171875
0.025607;25.187500
0.025435;25.187500
0.025431;25.187500
0.024640;25.187500
0.024704;25.234375
0.024614;25.234375
0.024534;25.234375
0.024569;25.250000
0.024808;25.250000
0.024703;25.250000
0.024506;25.250000
0.024521;25.296875
0.024551;25.296875
0.024219;25.296875
0.023719;25.296875
0.023694;25.312500
0.023730;25.312500
0.023748;25.312500
0.023648;25.343750
0.023816;25.343750
0.024013;25.343750
0.024096;25.359375
0.024099;25.359375
0.024216;25.359375
0.024482;25.359375
0.024399;25.406250
0.024104;25.406250
0.023835;25.406250
0.023864;25.406250
0.023853;25.421875
0.023526;25.421875
0.023212;25.421875
0.023173;25.453125
0.023153;25.453125
0.023152;25.453125
0.023185;25.468750
0.023186;25.468750
0.023253;25.468750
0.023285;25.468750
0.023399;25.484375
0.023596;25.484375
0.023629;25.484375
0.023493;25.500000
0.023447;25.500000
0.023575;25.500000
0.023515;25.500000
0.023312;25.500000
0.022922;25.500000
0.022958;25.500000
0.022926;25.515625
0.022787;25.515625
0.022838;25.515625
0.023176;25.515625
0.022924;25.531250
0.023021;25.531250
0.023221;25.531250
0.023690;25.578125
0.023435;25.578125
0.023325;25.578125
0.023372;25.578125
0.023454;25.609375
0.023423;25.609375
0.023078;25.609375
0.022942;25.625000
0.022938;25.625000
0.022903;25.625000
0.022981;25.640625
0.022989;25.640625
0.023201;25.640625
0.023233;25.640625
0.023259;25.687500
0.023559;25.687500
0.023763;25.687500
0.023356;25.718750
0.022419;25.718750
0.022432;25.718750
0.022592;25.765625
0.021999;25.765625
0.021116;25.765625
0.020698;25.765625
0.020700;25.781250
0.020509;25.781250
0.020329;25.781250
0.020382;25.828125
0.020552;25.828125
0.020468;25.828125
0.020480;25.843750
0.020714;25.843750
0.021035;25.843750
0.021019;25.843750
0.020703;25.843750
0.020819;25.843750
0.020783;25.843750
0.020348;25.843750
0.020088;25.875000
0.020091;25.875000
0.020096;25.875000
0.019977;25.875000
0.019963;25.875000
0.019977;25.875000
0.020002;25.875000
0.019972;25.875000
0.019993;25.875000
0.019990;25.875000
0.020041;25.890625
0.019848;25.890625
0.019624;25.890625
0.019626;25.890625
0.019584;25.937500
0.019239;25.937500
0.018931;25.937500
0.018840;25.937500
0.018801;25.953125
0.018759;25.953125
0.019253;25.953125
0.019468;26.000000
0.019461;26.000000
0.019505;26.000000
0.019711;26.000000
0.020274;26.031250
0.020117;26.031250
0.019852;26.031250
0.019967;26.078125
0.020008;26.078125
0.019736;26.078125
0.019401;26.078125
0.019258;26.093750
0.019261;26.093750
0.019227;26.093750
0.019221;26.140625
0.019260;26.140625
0.019496;26.140625
0.019519;26.140625
0.019572;26.156250
0.019690;26.156250
0.020085;26.156250
0.020198;26.203125
0.020196;26.203125
0.020163;26.203125
0.020155;26.203125
0.020025;26.203125
0.019813;26.203125
0.019660;26.203125
0.019696;26.203125
0.019698;26.218750
0.019706;26.218750
0.019913;26.218750
0.020135;26.234375
0.020117;26.234375
0.020281;26.234375
0.020918;26.234375
0.021192;26.250000
0.021204;26.250000
0.020837;26.250000
0.020856;26.296875
0.020899;26.296875
0.020693;26.296875
0.020110;26.296875
0.020106;26.296875
0.020104;26.296875
0.019985;26.296875
0.020038;26.343750
0.020188;26.343750
0.020294;26.343750
0.020317;26.343750
0.020866;26.359375
0.020988;26.359375
0.021321;26.359375
0.021295;26.406250
0.021148;26.406250
0.021287;26.406250
0.021285;26.406250
0.020892;26.421875
0.020675;26.421875
0.020610;26.421875
0.020600;26.437500
0.020471;26.437500
0.020110;26.437500
0.020188;26.437500
0.020274;26.437500
0.020272;26.437500
0.020279;26.437500
0.020900;26.453125
0.021325;26.453125
0.021300;26.453125
0.021144;26.453125
0.021364;26.453125
0.021630;26.453125
0.021434;26.453125
0.020949;26.500000
0.020847;26.500000
0.020878;26.500000
0.020758;26.500000
0.020634;26.515625
0.020787;26.515625
0.020801;26.515625
0.020806;26.562500
0.020829;26.562500
0.020999;26.562500
0.021653;26.562500
0.021640;26.578125
0.021873;26.578125
0.022055;26.578125
0.022057;26.593750
0.022059;26.593750
0.022131;26.593750
0.022189;26.593750
0.022234;26.593750
0.022280;26.593750
0.022540;26.593750
0.022734;26.609375
0.022781;26.609375
0.022817;26.609375
0.023064;26.609375
0.023255;26.656250
0.022889;26.656250
0.022704;26.656250
0.022712;26.703125
0.022757;26.703125
0.022596;26.703125
0.022124;26.750000
0.022052;26.750000
0.022154;26.750000
0.022004;26.750000
0.021958;26.765625
0.022070;26.765625
0.022263;26.765625
0.022332;26.812500
0.022364;26.812500
0.022580;26.812500
0.022902;26.812500
0.022860;26.828125
0.022687;26.828125
0.022695;26.828125
0.022711;26.843750
0.022599;26.843750
0.022264;26.843750
0.022109;26.843750
0.022199;26.859375
0.022161;26.859375
0.022326;26.859375
0.022783;26.906250
0.023005;26.906250
0.023020;26.906250
0.023362;26.921875
0.023763;26.921875
0.024161;26.921875
0.023959;26.921875
0.023786;26.921875
0.023949;26.921875
0.023971;26.921875
0.023556;26.968750
0.023325;26.968750
0.023210;26.968750
0.023208;26.968750
0.023253;26.984375
0.023272;26.984375
0.023416;26.984375
0.023530;27.000000
0.023532;27.000000
0.023902;27.000000
0.024203;27.000000
0.024309;27.000000
0.024193;27.000000
0.024185;27.000000
0.024512;27.015625
0.024095;27.015625
0.023978;27.015625
0.023567;27.015625
0.023637;27.062500
0.023602;27.062500
0.023447;27.062500
0.023467;27.093750
0.023807;27.093750
0.023845;27.093750
0.023847;27.093750
0.024034;27.109375
0.024479;27.109375
0.024612;27.109375
0.024554;27.156250
0.024507;27.156250
0.024555;27.156250
0.024691;27.203125
0.024137;27.203125
0.023765;27.203125
0.023728;27.218750
0.023822;27.218750
0.023744;27.218750
0.023508;27.218750
0.023791;27.250000
0.023785;27.250000
0.023837;27.250000
0.024096;27.250000
0.024197;27.281250
0.024164;27.281250
0.024038;27.281250
0.024170;27.281250
0.024379;27.281250
0.024364;27.281250
0.024246;27.312500
0.023644;27.312500
0.023646;27.312500
0.023424;27.312500
0.023231;27.312500
0.023280;27.312500
0.023488;27.359375
0.023306;27.359375
0.023322;27.359375
0.023329;27.359375
0.023623;27.359375
0.023396;27.359375
0.023237;27.359375
0.023182;27.359375
0.023219;27.359375
0.022974;27.359375
0.022846;27.359375
0.022798;27.359375
0.022830;27.375000
0.022822;27.375000
0.022849;27.375000
0.023221;27.375000
0.023294;27.375000
0.023303;27.375000
0.023233;27.375000
0.023298;27.421875
0.023557;27.421875
0.023566;27.421875
0.023386;27.421875
0.023429;27.437500
0.023502;27.437500
0.023302;27.437500
0.023103;27.437500
0.023077;27.468750
0.023035;27.468750
0.022983;27.468750
0.023045;27.468750
0.023349;27.500000
0.023461;27.500000
0.023496;27.500000
0.023481;27.500000
0.023630;27.531250
0.023582;27.531250
0.023175;27.531250
0.022957;27.562500
0.023108;27.562500
0.022983;27.562500
0.022545;27.562500
0.022253;27.562500
0.022421;27.562500
0.022635;27.562500
0.022454;27.578125
0.022379;27.578125
0.022623;27.578125
0.022821;27.578125
0.022827;27.578125
0.022930;27.578125
0.022927;27.578125
0.022822;27.578125
0.022652;27.578125
0.022600;27.625000
0.022596;27.625000
0.022229;27.625000
0.021948;27.625000
0.021702;27.625000
0.021706;27.656250
0.021622;27.656250
0.021240;27.656250
0.021309;27.656250
0.021473;27.671875
0.021517;27.671875
0.021433;27.671875
0.021481;27.671875
0.021654;27.671875
0.021713;27.687500
0.021346;27.687500
0.021328;27.687500
0.021387;27.687500
0.021165;27.687500
0.020689;27.718750
0.020553;27.718750
0.020547;27.718750
0.020542;27.718750
0.020523;27.718750
0.020414;27.718750
0.020504;27.718750
0.020464;27.718750
0.020459;27.718750
0.020366;27.718750
0.020289;27.734375
0.020284;27.734375
0.019972;27.734375
0.020018;27.734375
0.019912;27.734375
0.019619;27.765625
0.019546;27.765625
0.019565;27.765625
0.019558;27.765625
0.019382;27.765625
0.019400;27.796875
0.019742;27.796875
0.019919;27.796875
0.019916;27.796875
0.019938;27.796875
0.020461;27.812500
0.020718;27.812500
0.020718;27.812500
0.020505;27.812500
0.020546;27.843750
0.020577;27.843750
0.020531;27.843750
0.020210;27.843750
0.020351;27.843750
0.020337;27.875000
0.020276;27.875000
0.020393;27.875000
0.021091;27.875000
0.021266;27.875000
0.021227;27.875000
0.021432;27.875000
0.021702;27.921875
0.022002;27.921875
0.021608;27.921875
0.021521;27.921875
0.021701;27.937500
0.021707;27.937500
0.021618;27.937500
0.021425;27.984375
0.021355;27.984375
0.021427;27.984375
0.021292;27.984375
0.021724;28.000000
0.022393;28.000000
0.022509;28.000000
0.022494;28.046875
0.022995;28.046875
0.023411;28.046875
0.023678;28.093750
0.023447;28.093750
0.023326;28.093750
0.023466;28.093750
0.023423;28.093750
0.023275;28.093750
0.023137;28.093750
0.023098;28.093750
0.023080;28.093750
0.022889;28.093750
0.022989;28.093750
0.023194;28.093750
0.022989;28.093750
0.023008;28.109375
0.022961;28.109375
0.023672;28.109375
0.023692;28.156250
0.023335;28.156250
0.023211;28.156250
0.023278;28.156250
0.023194;28.156250
0.023108;28.156250
0.023070;28.156250
0.023140;28.203125
0.023080;28.203125
0.023083;28.203125
0.023130;28.203125
0.023269;28.218750
0.023239;28.218750
0.023301;28.218750
0.023659;28.265625
0.023986;28.265625
0.023969;28.265625
0.023889;28.265625
0.024006;28.281250
0.024116;28.281250
0.024034;28.281250
0.023869;28.328125
0.023700;28.328125
0.023741;28.328125
0.023689;28.328125
0.023679;28.328125
0.023988;28.328125
0.024125;28.328125
0.024097;28.343750
0.024176;28.343750
0.024502;28.343750
0.024786;28.343750
0.024754;28.343750
0.024754;28.343750
0.024968;28.343750
0.024963;28.343750
0.024946;28.343750
0.024923;28.375000
0.024921;28.375000
0.024881;28.375000
0.024845;28.375000
0.024969;28.375000
0.025082;28.390625
0.025232;28.390625
0.025228;28.390625
0.025360;28.406250
0.025781;28.406250
0.025690;28.406250
0.025419;28.406250
0.025331;28.421875
0.025482;28.421875
0.025478;28.421875
0.025037;28.468750
0.024951;28.468750
0.024905;28.468750
0.024931;28.468750
0.024884;28.484375
0.024941;28.484375
0.025118;28.484375
0.025355;28.531250
0.025252;28.531250
0.025312;28.531250
0.025602;28.531250
0.025631;28.546875
0.025059;28.546875
0.024815;28.546875
0.024916;28.593750
0.024725;28.593750
0.024501;28.593750
0.024174;28.593750
0.024173;28.609375
0.024175;28.609375
0.024102;28.609375
0.024533;28.656250
0.024734;28.656250
0.024692;28.656250
0.024873;28.656250
0.025112;28.671875
0.025410;28.671875
0.025226;28.671875
0.024627;28.718750
0.024449;28.718750
0.024772;28.718750
0.024338;28.718750
0.023950;28.734375
0.023576;28.734375
0.023544;28.734375
0.023558;28.781250
0.023408;28.781250
0.023628;28.781250
0.023996;28.781250
0.024021;28.796875
0.024053;28.796875
0.024417;28.796875
0.025214;28.843750
0.025007;28.843750
0.024803;28.843750
0.024805;28.890625
0.024714;28.890625
0.024550;28.890625
0.023865;28.890625
0.023744;28.890625
0.023740;28.890625
0.023695;28.890625
0.023636;28.890625
0.023836;28.906250
0.024082;28.906250
0.024072;28.906250
0.024104;28.953125
0.024342;28.953125
0.024829;28.953125
0.024783;28.953125
0.024615;28.968750
0.024669;28.968750
0.024590;28.968750
0.024240;28.968750
0.023911;28.968750
0.023819;28.968750
0.023768;28.984375
0.023611;28.984375
0.023630;28.984375
0.023870;28.984375
0.023965;28.984375
0.023959;29.000000
0.023967;29.000000
0.024402;29.000000
0.025005;29.000000
0.024817;29.000000
0.024658;29.015625
0.024761;29.015625
0.024819;29.015625
0.024498;29.015625
0.024179;29.046875
0.024163;29.046875
0.024059;29.046875
0.023835;29.046875
0.023861;29.046875
0.023946;29.093750
0.023979;29.093750
0.024062;29.093750
0.024290;29.093750
0.024454;29.093750
0.024338;29.125000
0.024180;29.125000
0.024041;29.125000
0.024057;29.140625
0.023919;29.140625
0.023490;29.140625
0.023426;29.140625
0.023428;29.140625
0.023334;29.140625
0.023191;29.140625
0.023528;29.187500
0.023691;29.187500
0.023566;29.187500
0.023570;29.187500
0.023594;29.187500
0.023805;29.187500
0.023853;29.187500
0.023670;29.234375
0.023353;29.234375
0.023381;29.234375
0.023302;29.234375
0.022987;29.250000
0.022794;29.250000
0.022794;29.250000
0.022781;29.296875
0.022650;29.296875
0.022676;29.296875
0.022868;29.296875
0.022882;29.312500
0.022935;29.312500
0.023152;29.312500
0.023253;29.359375
0.022793;29.359375
0.022551;29.359375
0.022582;29.359375
0.022418;29.359375
0.022076;29.359375
0.021755;29.359375
0.021477;29.375000
0.021479;29.375000
0.021405;29.375000
0.021049;29.375000
0.021418;29.390625
0.021763;29.390625
0.021753;29.390625
0.021860;29.406250
0.022178;29.406250
0.022559;29.406250
0.022427;29.406250
0.022037;29.406250
0.022230;29.406250
0.022577;29.406250
0.022183;29.453125
0.021293;29.453125
0.021205;29.453125
0.021293;29.468750
0.021245;29.468750
0.021233;29.468750
0.021380;29.468750
0.021565;29.468750
0.021546;29.468750
0.021545;29.468750
0.021599;29.484375
0.022088;29.484375
0.021870;29.484375
0.021601;29.484375
0.021632;29.531250
0.021555;29.531250
0.021276;29.531250
0.020699;29.546875
0.020731;29.546875
0.020735;29.546875
0.020672;29.546875
0.020755;29.546875
0.020835;29.546875
0.020882;29.546875
0.020906;29.562500
0.021036;29.562500
0.021447;29.562500
0.021463;29.562500
0.021212;29.562500
0.021453;29.562500
0.021548;29.562500
0.021479;29.562500
0.020972;29.562500
0.020276;29.578125
0.020138;29.578125
0.020154;29.578125
0.020045;29.578125
0.020132;29.609375
0.020316;29.609375
0.020316;29.609375
0.020332;29.609375
0.020435;29.609375
0.020518;29.625000
0.020645;29.625000
0.020563;29.625000
0.020527;29.625000
0.020563;29.625000
0.020318;29.671875
0.020123;29.671875
0.020149;29.671875
0.020178;29.671875
0.020166;29.671875
0.020141;29.687500
0.020474;29.687500
0.020883;29.687500
0.020828;29.687500
0.020826;29.718750
0.021316;29.718750
0.021913;29.718750
0.021696;29.718750
0.021529;29.718750
0.021644;29.750000
0.021655;29.750000
0.021641;29.750000
0.021417;29.750000
0.021192;29.796875
0.021191;29.796875
0.021193;29.796875
0.021202;29.796875
0.021335;29.812500
0.021454;29.812500
0.021442;29.812500
0.021499;29.859375
0.021653;29.859375
0.021806;29.859375
0.021873;29.859375
0.021678;29.875000
0.021592;29.875000
0.021793;29.875000
0.021795;29.906250
0.021601;29.906250
0.021608;29.906250
0.021791;29.921875
0.021923;29.921875
0.021836;29.921875
0.022103;29.921875
0.022311;29.968750
0.022280;29.968750
0.022296;29.968750
0.022429;29.968750
0.022547;29.984375
0.022193;29.984375
0.021921;29.984375
0.022005;30.031250
0.021948;30.031250
0.021614;30.031250
0.021207;30.031250
0.021116;30.046875
0.021110;30.046875
0.020889;30.046875
0.020555;30.046875
0.020585;30.046875
0.020639;30.062500
0.020570;30.062500
0.020653;30.062500
0.020912;30.062500
0.021105;30.093750
0.020989;30.093750
0.020994;30.093750
0.021317;30.093750
0.021329;30.093750
0.021234;30.140625
0.020817;30.140625
0.020920;30.140625
0.020994;30.140625
0.020952;30.140625
0.021083;30.156250
0.021449;30.156250
0.021579;30.156250
0.021581;30.156250
0.021706;30.156250
0.021957;30.171875
0.021920;30.171875
0.021845;30.171875
0.021829;30.171875
0.021844;30.171875
0.021699;30.187500
0.021292;30.187500
0.021169;30.187500
0.021152;30.187500
0.020803;30.218750
0.020771;30.218750
0.020990;30.218750
0.021337;30.218750
0.021323;30.218750
0.021384;30.250000
0.021561;30.250000
0.022078;30.250000
0.022002;30.250000
0.021792;30.265625
0.021880;30.265625
0.021946;30.265625
0.021862;30.312500
0.021800;30.312500
0.021686;30.312500
0.021680;30.312500
0.021652;30.312500
0.021566;30.312500
0.021789;30.312500
0.021902;30.359375
0.021862;30.359375
0.022023;30.359375
0.022152;30.359375
0.022603;30.359375
0.022320;30.359375
0.022006;30.406250
0.022067;30.406250
0.022091;30.406250
0.021622;30.406250
0.021122;30.421875
0.021053;30.421875
0.021086;30.421875
0.020968;30.437500
0.021064;30.437500
0.021302;30.437500
0.021663;30.437500
0.021658;30.453125
0.021842;30.453125
0.022060;30.453125
0.022217;30.453125
0.022106;30.468750
0.021990;30.468750
0.022116;30.468750
0.022080;30.468750
0.021935;30.468750
0.021787;30.468750
0.021701;30.468750
0.021694;30.484375
0.021675;30.484375
0.021627;30.484375
0.021734;30.500000
0.021763;30.500000
0.021793;30.500000
0.021668;30.500000
0.022029;30.515625
0.022170;30.515625
0.021909;30.515625
0.021710;30.562500
0.021762;30.562500
0.021756;30.562500
0.021627;30.562500
0.021444;30.578125
0.021414;30.578125
0.021348;30.578125
0.021287;30.593750
0.021353;30.593750
0.021555;30.593750
0.021592;30.593750
0.021595;30.593750
0.021742;30.593750
0.022080;30.593750
0.022172;30.609375
0.022145;30.609375
0.022081;30.609375
0.022187;30.609375
0.022023;30.609375
0.021756;30.609375
0.021441;30.609375
0.021464;30.656250
0.021272;30.656250
0.021002;30.656250
0.021324;30.671875
0.021642;30.671875
0.021563;30.671875
0.021484;30.671875
0.021572;30.703125
0.022120;30.703125
0.022140;30.703125
0.021801;30.703125
0.021712;30.703125
0.021862;30.734375
0.021799;30.734375
0.021545;30.734375
0.021502;30.734375
0.021548;30.734375
0.021510;30.750000
0.021581;30.750000
0.021629;30.750000
0.021652;30.750000
0.021622;30.781250
0.021629;30.781250
0.021711;30.781250
0.021826;30.781250
0.021620;30.781250
0.021339;30.828125
0.021389;30.828125
0.021357;30.828125
0.021183;30.828125
0.020859;30.828125
0.020697;30.843750
0.020693;30.843750
0.020605;30.843750
0.020589;30.843750
0.020895;30.875000
0.020939;30.875000
0.020887;30.875000
0.021029;30.875000
0.021105;30.875000
0.021377;30.906250
0.021125;30.906250
0.021021;30.906250
0.021098;30.906250
0.020914;30.937500
0.020724;30.937500
0.020256;30.937500
0.020238;30.937500
0.020136;30.937500
0.020040;30.953125
0.020189;30.953125
0.020421;30.953125
0.020339;30.953125
0.020274;30.953125
0.020345;30.984375
0.020675;30.984375
0.020636;30.984375
0.020386;30.984375
0.020190;30.984375
0.020355;31.015625
0.020173;31.015625
0.019930;31.015625
0.019735;31.015625
0.019704;31.015625
0.019699;31.031250
0.019551;31.031250
0.019648;31.031250
0.019829;31.031250
0.019825;31.031250
0.019877;31.062500
0.019911;31.062500
0.020173;31.062500
0.020008;31.062500
0.019608;31.062500
0.019625;31.093750
0.019661;31.093750
0.019595;31.093750
0.019008;31.109375
0.018845;31.109375
0.018849;31.109375
0.018800;31.109375
0.018733;31.109375
0.018851;31.109375
0.019196;31.109375
0.019274;31.109375
0.019325;31.125000
0.019506;31.125000
0.020138;31.125000
0.020118;31.140625
0.019890;31.140625
0.019880;31.140625
0.019991;31.140625
0.019836;31.156250
0.019483;31.156250
0.019459;31.156250
0.019460;31.156250
0.019592;31.156250
0.020190;31.156250
0.020419;31.156250
0.020501;31.171875
0.020555;31.171875
0.020610;31.171875
0.020920;31.171875
0.021808;31.187500
0.021710;31.187500
0.021396;31.187500
0.021471;31.187500
0.021557;31.203125
0.021532;31.203125
0.021023;31.203125
0.020970;31.218750
0.020955;31.218750
0.020923;31.218750
0.020764;31.218750
0.020712;31.265625
0.020749;31.265625
0.020743;31.265625
0.020770;31.265625
0.020919;31.265625
0.021023;31.265625
0.021037;31.265625
0.021015;31.281250
0.021019;31.281250
0.021018;31.281250
0.020932;31.281250
0.020752;31.281250
0.020749;31.281250
0.020684;31.281250
0.020571;31.296875
0.020793;31.296875
0.021393;31.296875
0.021161;31.296875
0.021156;31.343750
0.055294;31.343750
0.088405;31.343750
0.102811;31.343750
0.116215;31.375000
0.116619;31.375000
0.125048;31.375000
0.128798;31.390625
0.131820;31.390625
0.131927;31.390625
0.132103;31.390625
0.135356;31.406250
0.135404;31.406250
0.135399;31.406250
0.136807;31.437500
0.136902;31.437500
0.136919;31.437500
0.137042;31.437500
0.137100;31.453125
0.137324;31.453125
0.137418;31.453125
0.137515;31.453125
0.137512;31.453125
0.137505;31.453125
0.137455;31.453125
0.137480;31.468750
0.137496;31.468750
0.137468;31.468750
0.137521;31.515625
0.137540;31.515625
0.137541;31.515625
0.137781;31.515625
0.137785;31.531250
0.137789;31.531250
0.137833;31.531250
0.137964;31.578125
0.138204;31.578125
0.138221;31.578125
0.138209;31.578125
0.138203;31.593750
0.138293;31.593750
0.138282;31.593750
0.138320;31.593750
0.138316;31.593750
0.138311;31.609375
0.138326;31.609375
0.138428;31.609375
0.138467;31.640625
0.138467;31.640625
0.138467;0.000000
0.138509;0.000000
0.138591;31.656250
0.138561;31.656250
0.138553;31.656250
0.138557;31.656250
0.138581;31.656250
0.138489;31.656250
0.138470;31.703125
0.138485;31.703125
0.138478;31.703125
0.138454;31.703125
0.138453;31.718750
0.138468;31.718750
0.138495;31.718750
0.138511;31.765625
0.138517;31.765625
0.138460;31.765625
0.138465;31.765625
0.138473;31.781250
0.138465;31.781250
0.138454;31.781250
0.138440;31.828125
0.138323;31.828125
0.138285;31.828125
0.138296;31.828125
0.138282;31.828125
0.138263;31.828125
0.138244;31.828125
0.138266;31.875000
0.138268;31.875000
0.138291;31.875000
0.138311;31.875000
0.138324;31.890625
0.138385;31.890625
0.138393;31.890625
0.138401;31.906250
0.138412;31.906250
0.138412;31.906250
0.138378;31.906250
0.138372;31.921875
0.138388;31.921875
0.138389;31.921875
0.138396;31.937500
0.138409;31.937500
0.138453;31.937500
0.138505;31.937500
0.138505;31.984375
0.138508;31.984375
0.138494;31.984375
0.138441;31.984375
0.138461;32.000000
0.138462;32.000000
0.128700;32.000000
0.108671;32.046875
0.095142;32.046875
0.078124;32.046875
0.077506;32.046875
0.063018;32.046875
0.054916;32.046875
0.047164;32.046875
0.046738;32.062500
0.046431;32.062500
0.035916;32.062500
0.035702;32.062500
0.035857;32.109375
0.030267;32.109375
0.030000;32.109375
0.029923;32.109375
0.029408;32.125000
0.029163;32.125000
0.027976;32.125000
0.027348;32.171875
0.026821;32.171875
0.026833;32.171875
0.026802;32.171875
0.026878;32.187500
0.026911;32.187500
0.026891;32.187500
0.026897;32.203125
0.026675;32.203125
0.026730;32.203125
0.027083;32.203125
0.025800;32.203125
0.025791;32.203125
0.025945;32.203125
0.025793;32.203125
0.025005;32.218750
0.023539;32.218750
0.023480;32.218750
0.023555;32.218750
0.023564;32.218750
0.022955;32.218750
0.023161;32.265625
0.023155;32.265625
0.023119;32.265625
0.023239;32.265625
0.023571;32.281250
0.023295;32.281250
0.023059;32.281250
0.023207;32.328125
0.023314;32.328125
0.023093;32.328125
0.022491;32.343750
0.022443;32.343750
0.022470;32.343750
0.022405;32.343750
0.022143;32.375000
0.022424;32.375000
0.022615;32.375000
0.022605;32.375000
0.022671;32.390625
0.022835;32.390625
0.023156;32.390625
0.023129;32.437500
0.022913;32.437500
0.022814;32.437500
0.022710;32.437500
0.022507;32.453125
0.022340;32.453125
0.022218;32.453125
0.022223;32.468750
0.022193;32.468750
0.022016;32.468750
0.022035;32.468750
0.022035;32.468750
0.021980;32.468750
0.022153;32.468750
0.022399;32.484375
0.022876;32.484375
0.022742;32.484375
0.022674;32.484375
0.022835;32.484375
0.023397;32.484375
0.023340;32.484375
0.023003;32.500000
0.023111;32.500000
0.023235;32.500000
0.023133;32.500000
0.023002;32.546875
0.023217;32.546875
0.023305;32.546875
0.023209;32.546875
0.023192;32.546875
0.023224;32.546875
0.023361;32.546875
0.023149;32.593750
0.022842;32.593750
0.022963;32.593750
0.022961;32.593750
0.022809;32.609375
0.022649;32.609375
0.022544;32.609375
0.022558;32.656250
0.022521;32.656250
0.022802;32.656250
0.023425;32.656250
0.023641;32.671875
0.023631;32.671875
0.023908;32.671875
0.024430;32.703125
0.025355;32.703125
0.025423;32.703125
0.025104;32.703125
0.025154;32.734375
0.025353;32.734375
0.025148;32.734375
0.024871;32.734375
0.024633;32.734375
0.024640;32.734375
0.024575;32.734375
0.024683;32.781250
0.025082;32.781250
0.025150;32.781250
0.025237;32.781250
0.025607;32.796875
0.025934;32.796875
0.026015;32.796875
0.025785;32.843750
0.025736;32.843750
0.025816;32.843750
0.025703;32.843750
0.025599;32.859375
0.025385;32.859375
0.025376;32.859375
0.025371;32.906250
0.025193;32.906250
0.025326;32.906250
0.025397;32.906250
0.025474;32.921875
0.025446;32.921875
0.025657;32.921875
0.025886;32.968750
0.025865;32.968750
0.025673;32.968750
0.025622;32.968750
0.025691;32.968750
0.025522;32.968750
0.025168;32.968750
0.024829;32.984375
0.024895;32.984375
0.024788;32.984375
0.024746;32.984375
0.025006;33.000000
0.025299;33.000000
0.025309;33.000000
0.025359;33.046875
0.025607;33.046875
0.025891;33.046875
0.025720;33.046875
0.025533;33.062500
0.025534;33.062500
0.025618;33.062500
0.025488;33.109375
0.025233;33.109375
0.025150;33.109375
0.025071;33.109375
0.025070;33.125000
0.025024;33.125000
0.025141;33.125000
0.025293;33.156250
0.025325;33.156250
0.025351;33.156250
0.025737;33.156250
0.025939;33.171875
0.025825;33.171875
0.025825;33.171875
0.025843;33.187500
0.025798;33.187500
0.025580;33.187500
0.025152;33.187500
0.025126;33.218750
0.025066;33.218750
0.024793;33.218750
0.024232;33.250000
0.024424;33.250000
0.024484;33.250000
0.024306;33.250000
0.024199;33.265625
0.024613;33.265625
0.025012;33.296875
0.024847;33.296875
0.024802;33.296875
0.024895;33.296875
0.025000;33.312500
0.024931;33.312500
0.024765;33.312500
0.024766;33.359375
0.024766;33.359375
0.024691;33.359375
0.024816;33.359375
0.024986;33.375000
0.025436;33.375000
0.025494;33.375000
0.025540;33.375000
0.025946;33.375000
0.026210;33.375000
0.025727;33.375000
0.025521;33.390625
0.025528;33.390625
0.025286;33.390625
0.024728;33.406250
0.023809;33.406250
0.023732;33.406250
0.023732;33.406250
0.023580;33.421875
0.023393;33.421875
0.023491;33.421875
0.023499;33.437500
0.023523;33.437500
0.023735;33.437500
0.024044;33.437500
0.023989;33.453125
0.023565;33.453125
0.023583;33.453125
0.023537;33.468750
0.023155;33.468750
0.022764;33.468750
0.022631;33.468750
0.022639;33.468750
0.022565;33.468750
0.022485;33.468750
0.022650;33.468750
0.022601;33.500000
0.022432;33.500000
0.022499;33.500000
0.022853;33.500000
0.023329;33.500000
0.023322;33.500000
0.023381;33.515625
0.023562;33.515625
0.023824;33.515625
0.023572;33.515625
0.023356;33.562500
0.023460;33.562500
0.023546;33.562500
0.023388;33.562500
0.023360;33.578125
0.023876;33.578125
0.024124;33.578125
0.024129;33.593750
0.024216;33.593750
0.024750;33.593750
0.025003;33.593750
0.024796;33.625000
0.024555;33.625000
0.024725;33.625000
0.024698;33.640625
0.024461;33.640625
0.024168;33.640625
0.024093;33.640625
0.024094;33.671875
0.024016;33.671875
0.023871;33.671875
0.024013;33.671875
0.024161;33.687500
0.024156;33.687500
0.024183;33.687500
0.024342;33.703125
0.024628;33.703125
0.024489;33.703125
0.024301;33.718750
0.024359;33.718750
0.024364;33.718750
0.023952;33.718750
0.023777;33.734375
0.023714;33.734375
0.023722;33.734375
0.023710;33.734375
0.023788;33.750000
0.023922;33.750000
0.024044;33.750000
0.024046;33.796875
0.024126;33.796875
0.024421;33.796875
0.024788;33.796875
0.024540;33.812500
0.024473;33.812500
0.024569;33.812500
0.024600;33.812500
0.024150;33.812500
0.023778;33.812500
0.023741;33.828125
0.023686;33.828125
0.023584;33.828125
0.023503;33.828125
0.023757;33.828125
0.023851;33.828125
0.023823;33.828125
0.024020;33.843750
0.024200;33.843750
0.024179;33.843750
0.024002;33.843750
0.023556;33.859375
0.023641;33.859375
0.023577;33.859375
0.023145;33.906250
0.022595;33.906250
0.022541;33.906250
0.022548;33.906250
0.022575;33.921875
0.022909;33.921875
0.023374;33.921875
0.023345;33.968750
0.023345;33.968750
0.023505;33.968750
0.023859;33.968750
0.024078;33.984375
0.023971;33.984375
0.023991;33.984375
0.024134;34.031250
0.023976;34.031250
0.023710;34.031250
0.023622;34.078125
0.023611;34.078125
0.023509;34.078125
0.023459;34.078125
0.023425;34.093750
0.023450;34.093750
0.023400;34.093750
0.023544;34.140625
0.023757;34.140625
0.024049;34.140625
0.023819;34.156250
0.023952;34.156250
0.024467;34.156250
0.024593;34.156250
0.024270;34.203125
0.023965;34.203125
0.023907;34.203125
0.023884;34.218750
0.023587;34.218750
0.023355;34.218750
0.023526;34.218750
0.023582;34.234375
0.023354;34.234375
0.023284;34.234375
0.023622;34.250000
0.023771;34.250000
0.023259;34.250000
0.023139;34.250000
0.023255;34.281250
0.023111;34.281250
0.022508;34.281250
0.022252;34.328125
0.022175;34.328125
0.022109;34.328125
0.021843;34.343750
0.021837;34.343750
0.021934;34.343750
0.022151;34.343750
0.022151;34.343750
0.022298;34.343750
0.022531;34.343750
0.022823;34.359375
0.022711;34.359375
0.022544;34.359375
0.022570;34.359375
0.022663;34.406250
0.022552;34.406250
0.022305;34.406250
0.022251;34.421875
0.022233;34.421875
0.022163;34.421875
0.022127;34.421875
0.022126;34.421875
0.022059;34.421875
0.022059;34.421875
0.022276;34.437500
0.022364;34.437500
0.022216;34.437500
0.022142;34.437500
0.022102;34.453125
0.022249;34.453125
0.022162;34.453125
0.021842;34.468750
0.021389;34.468750
0.021385;34.468750
0.021390;34.468750
0.021289;34.484375
0.021325;34.484375
0.021427;34.484375
0.021474;34.531250
0.021504;34.531250
0.021523;34.531250
0.021977;34.531250
0.022114;34.531250
0.021853;34.531250
0.021718;34.531250
0.021887;34.546875
0.021723;34.546875
0.021494;34.546875
0.021418;34.546875
0.021454;34.562500
0.021400;34.562500
0.021253;34.562500
0.021616;34.609375
0.022240;34.609375
0.022322;34.609375
0.022336;34.609375
0.022743;34.609375
0.023580;34.609375
0.023679;34.609375
0.023213;34.656250
0.023400;34.656250
0.023474;34.656250
0.023326;34.656250
0.022995;34.671875
0.022713;34.671875
0.022708;34.671875
0.022679;34.718750
0.022596;34.718750
0.022957;34.718750
0.023022;34.718750
0.023037;34.718750
0.023258;34.718750
0.023745;34.718750
0.023869;34.718750
0.023857;34.734375
0.024014;34.734375
0.024198;34.734375
0.024041;34.781250
0.023866;34.781250
0.023617;34.781250
0.023645;34.828125
0.023470;34.828125
0.022924;34.828125
0.022866;34.828125
0.023250;34.843750
0.023098;34.843750
0.022946;34.843750
0.022829;34.890625
0.023028;34.890625
0.023287;34.890625
0.023106;34.906250
0.023009;34.906250
0.023158;34.906250
0.023202;34.906250
0.022862;34.937500
0.022653;34.937500
0.022685;34.937500
0.022535;34.937500
0.022402;34.953125
0.022499;34.953125
0.022745;34.953125
0.022686;34.953125
0.022672;34.953125
0.023064;34.953125
0.023394;34.968750
0.023609;34.968750
0.023496;34.968750
0.023280;34.968750
0.023457;35.015625
0.023365;35.015625
0.023142;35.015625
0.022853;35.015625
0.022798;35.031250
0.022768;35.031250
0.022744;35.031250
0.022733;35.031250
0.023043;35.031250
0.023001;35.031250
0.023010;35.046875
0.023191;35.046875
0.023469;35.046875
0.023588;35.046875
0.023605;35.046875
0.023730;35.046875
0.023801;35.046875
0.023605;35.093750
0.023544;35.093750
0.023521;35.093750
0.023461;35.093750
0.023372;35.093750
0.023237;35.093750
0.023368;35.093750
0.023806;35.109375
0.023898;35.109375
0.023899;35.109375
0.023955;35.109375
0.025019;35.125000
0.025211;35.125000
0.025159;35.125000
0.025257;35.140625
0.025251;35.140625
0.025234;35.140625
0.024874;35.140625
0.024724;35.187500
0.024709;35.187500
0.024722;35.187500
0.024739;35.187500
0.025118;35.203125
0.025398;35.203125
0.025376;35.203125
0.025522;35.250000
0.025836;35.250000
0.026643;35.250000
0.026677;35.250000
0.026149;35.250000
0.026117;35.250000
0.026235;35.250000
0.025897;35.250000
0.025107;35.265625
0.024685;35.265625
0.024686;35.265625
0.024520;35.312500
0.024642;35.312500
0.025007;35.312500
0.025026;35.328125
0.025179;35.328125
0.025402;35.328125
0.025682;35.328125
0.025761;35.328125
0.025402;35.328125
0.025339;35.328125
0.025512;35.328125
0.025442;35.343750
0.025010;35.343750
0.024913;35.343750
0.024942;35.359375
0.024763;35.359375
0.024590;35.359375
0.024648;35.359375
0.024785;35.375000
0.024914;35.375000
0.024921;35.375000
0.025042;35.421875
0.025542;35.421875
0.025756;35.421875
0.025457;35.421875
0.025633;35.437500
0.025855;35.437500
0.025843;35.437500
0.025653;35.468750
0.025428;35.468750
0.025485;35.468750
0.025548;35.484375
0.025431;35.484375
0.025668;35.484375
0.026123;35.484375
0.026267;35.500000
0.026388;35.500000
0.026502;35.500000
0.026780;35.515625
0.026698;35.515625
0.026479;35.515625
0.026453;35.515625
0.026465;35.562500
0.026119;35.562500
0.025823;35.562500
0.025569;35.609375
0.025569;35.609375
0.025534;35.609375
0.025522;35.656250
0.025696;35.656250
0.025773;35.656250
0.025773;35.656250
0.025974;35.656250
0.026379;35.656250
0.026566;35.656250
0.026532;35.671875
0.026242;35.671875
0.026428;35.671875
0.026519;35.671875
0.026361;35.671875
0.026082;35.671875
0.025997;35.671875
0.025982;35.718750
0.025875;35.718750
0.025847;35.718750
0.026037;35.718750
0.026123;35.734375
0.026102;35.734375
0.026126;35.734375
0.026432;35.734375
0.026658;35.734375
0.026583;35.734375
0.026217;35.734375
0.026176;35.750000
0.026212;35.750000
0.026125;35.750000
0.025140;35.750000
0.024838;35.750000
0.024851;35.750000
0.024697;35.765625
0.024698;35.765625
0.024727;35.765625
0.024784;35.765625
0.024789;35.781250
0.024793;35.781250
0.024873;35.781250
0.024857;35.828125
0.024430;35.828125
0.024143;35.828125
0.024193;35.828125
0.024071;35.843750
0.023722;35.843750
0.022810;35.843750
0.022463;35.875000
0.022480;35.875000
0.022313;35.875000
0.022398;35.921875
0.022690;35.921875
0.022891;35.921875
0.022895;35.921875
0.022918;35.968750
0.023655;35.968750
0.023694;35.968750
0.023270;35.968750
0.023263;35.984375
0.023217;35.984375
0.023063;35.984375
0.022752;35.984375
0.022598;35.984375
0.022580;35.984375
0.022565;36.000000
0.022378;36.000000
0.022333;36.000000
0.022508;36.000000
0.022688;36.031250
0.022766;36.031250
0.023144;36.031250
0.023720;36.078125
0.023834;36.078125
0.023685;36.078125
0.023608;36.078125
0.023694;36.093750
0.023600;36.093750
0.023079;36.093750
0.022702;36.109375
0.022636;36.109375
0.022445;36.109375
0.022210;36.125000
0.022401;36.125000
0.022699;36.125000
0.022654;36.125000
0.022582;36.140625
0.022644;36.140625
0.023044;36.140625
0.022836;36.156250
0.022306;36.156250
0.022173;36.156250
0.022086;36.156250
0.021925;36.156250
0.021609;36.156250
0.021618;36.156250
0.021616;36.171875
0.021616;36.171875
0.021756;36.171875
0.022091;36.171875
0.022392;36.203125
0.022396;36.203125
0.022670;36.203125
0.022766;36.218750
0.022825;36.218750
0.022579;36.218750
0.022506;36.218750
0.022567;36.250000
0.022397;36.250000
0.021920;36.250000
0.021749;36.265625
0.021763;36.265625
0.021831;36.265625
0.021594;36.265625
0.021806;36.265625
0.022120;36.265625
0.022476;36.265625
0.022445;36.281250
0.022513;36.281250
0.022777;36.281250
0.023108;36.281250
0.022892;36.296875
0.022761;36.296875
0.022900;36.296875
0.022884;36.343750
0.022518;36.343750
0.022413;36.343750
0.022405;36.343750
0.022369;36.343750
0.022263;36.343750
0.022368;36.343750
0.022609;36.343750
0.022663;36.375000
0.022659;36.375000
0.022688;36.375000
0.022988;36.375000
0.023334;36.375000
0.023363;36.406250
0.023393;36.406250
0.023561;36.406250
0.023660;36.406250
0.023554;36.406250
0.023406;36.421875
0.023763;36.421875
0.023907;36.421875
0.023832;36.421875
0.024438;36.437500
0.024842;36.437500
0.024975;36.437500
0.024947;36.437500
0.025203;36.437500
0.025602;36.453125
0.025677;36.453125
0.025408;36.453125
0.025245;36.453125
0.025431;36.453125
0.025414;36.468750
0.024721;36.468750
0.024455;36.468750
0.024448;36.468750
0.024423;36.500000
0.024312;36.500000
0.024742;36.500000
0.024945;36.500000
0.024918;36.500000
0.025020;36.546875
0.025111;36.546875
0.025437;36.546875
0.025466;36.546875
0.025304;36.546875
0.025199;36.578125
0.025213;36.578125
0.024885;36.578125
0.024338;36.578125
0.024183;36.578125
0.024148;36.609375
0.024035;36.609375
0.023996;36.609375
0.024075;36.609375
0.024082;36.640625
0.024082;36.640625
0.024126;36.640625
0.024569;36.640625
0.024904;36.640625
0.024744;36.656250
0.024545;36.656250
0.024596;36.656250
0.024663;36.656250
0.024547;36.656250
0.024157;36.656250
0.024072;36.656250
0.024115;36.656250
0.024109;36.671875
0.024020;36.671875
0.024204;36.671875
0.024334;36.718750
0.024321;36.718750
0.024576;36.718750
0.024618;36.718750
0.024710;36.765625
0.024443;36.765625
0.024185;36.765625
0.024232;36.781250
0.024108;36.781250
0.024010;36.781250
0.023977;36.781250
0.023989;36.796875
0.024005;36.796875
0.024107;36.796875
0.024419;36.812500
0.024484;36.812500
0.024431;36.812500
0.024524;36.812500
0.024881;36.812500
0.025280;36.812500
0.025039;36.812500
0.024762;36.828125
0.024521;36.828125
0.024673;36.828125
0.024633;36.828125
0.024385;36.828125
0.024039;36.828125
0.024024;36.828125
0.024064;36.828125
0.023917;36.843750
0.024006;36.843750
0.024164;36.843750
0.024024;36.843750
0.024005;36.859375
0.024115;36.859375
0.024481;36.859375
0.024600;36.906250
0.024386;36.906250
0.024426;36.906250
0.024579;36.906250
0.024519;36.937500
0.024224;36.937500
0.023938;36.937500
0.023896;36.984375
0.023774;36.984375
0.023622;36.984375
0.023773;36.984375
0.023995;37.000000
0.023964;37.000000
0.023634;37.000000
0.023727;37.000000
0.023884;37.000000
0.023359;37.000000
0.022858;37.046875
0.022731;37.046875
0.022951;37.046875
0.022650;37.046875
0.022246;37.062500
0.021966;37.062500
0.021959;37.062500
0.021937;37.109375
0.021807;37.109375
0.022083;37.109375
0.022152;37.125000
0.022174;37.125000
0.022308;37.125000
0.022344;37.125000
0.022409;37.140625
0.021835;37.140625
0.021632;37.140625
0.021637;37.187500
0.021520;37.187500
0.021389;37.187500
0.021019;37.187500
0.020893;37.203125
0.020982;37.203125
0.020888;37.203125
0.021269;37.250000
0.022053;37.250000
0.022465;37.250000
0.022448;37.250000
0.023009;37.265625
0.023423;37.265625
0.023961;37.265625
0.023866;37.281250
0.023863;37.281250
0.023875;37.281250
0.023910;37.281250
0.023441;37.296875
0.023065;37.296875
0.023110;37.296875
0.023050;37.343750
0.022996;37.343750
0.023093;37.343750
0.023552;37.343750
0.023720;37.359375
0.023682;37.359375
0.023747;37.359375
0.024010;37.375000
0.024393;37.375000
0.024261;37.375000
0.024164;37.375000
0.024161;37.375000
0.023935;37.375000
0.023895;37.375000
0.023715;37.390625
0.023696;37.390625
0.023679;37.390625
0.023697;37.390625
0.023822;37.390625
0.024220;37.390625
0.024137;37.390625
0.024140;37.406250
0.024514;37.406250
0.024674;37.406250
0.024480;37.406250
0.024428;37.453125
0.024457;37.453125
0.024392;37.453125
0.023983;37.453125
0.023551;37.453125
0.023519;37.468750
0.023520;37.468750
0.023446;37.468750
0.023356;37.468750
0.023710;37.484375
0.023821;37.484375
0.023813;37.484375
0.023829;37.484375
0.023796;37.484375
0.024519;37.500000
0.024956;37.500000
0.024827;37.500000
0.024984;37.546875
0.025113;37.546875
0.025010;37.546875
0.024652;37.546875
0.024397;37.546875
0.024386;37.546875
0.024280;37.546875
0.024362;37.593750
0.024588;37.593750
0.024776;37.593750
0.024776;37.593750
0.025014;37.593750
0.025579;37.593750
0.026263;37.593750
0.026100;37.640625
0.025916;37.640625
0.026033;37.640625
0.026103;37.640625
0.025869;37.656250
0.025759;37.656250
0.025626;37.656250
0.025623;37.671875
0.025581;37.671875
0.025534;37.671875
0.025638;37.671875
0.025606;37.703125
0.025533;37.703125
0.025923;37.703125
0.026257;37.703125
0.026377;37.718750
0.026193;37.718750
0.026185;37.718750
0.026249;37.765625
0.026176;37.765625
0.026133;37.765625
0.026268;37.781250
0.026414;37.781250
0.026395;37.781250
0.026402;37.781250
0.026647;37.781250
0.026947;37.781250
0.027049;37.781250
0.027039;37.796875
0.027158;37.796875
0.027493;37.796875
0.027308;37.796875
0.026665;37.796875
0.026356;37.796875
0.026417;37.796875
0.025930;37.796875
0.025551;37.812500
0.025053;37.812500
0.025043;37.812500
0.025032;37.812500
0.025038;37.812500
0.025170;37.812500
0.025335;37.859375
0.025321;37.859375
0.025336;37.859375
0.025352;37.859375
0.025560;37.859375
0.025468;37.859375
0.025032;37.859375
0.024880;37.906250
0.025016;37.906250
0.024914;37.906250
0.024660;37.906250
0.024304;37.906250
0.024258;37.906250
0.024235;37.906250
0.024269;37.921875
0.024264;37.921875
0.024388;37.921875
0.024344;37.921875
0.024329;37.937500
0.024458;37.937500
0.024625;37.937500
0.024500;37.953125
0.024102;37.953125
0.024024;37.953125
0.024047;37.953125
0.023635;38.000000
0.023394;38.000000
0.023287;38.000000
0.023272;38.000000
0.023302;38.015625
0.023378;38.015625
0.023537;38.015625
0.023673;38.015625
0.023646;38.015625
0.023633;38.015625
0.023762;38.062500
0.023954;38.062500
0.023719;38.062500
0.023598;38.062500
0.023606;38.062500
0.023590;38.062500
0.023587;38.062500
0.022835;38.109375
0.022265;38.109375
0.022245;38.109375
0.022061;38.109375
0.022115;38.109375
0.022512;38.109375
0.022673;38.109375
0.022678;38.109375
0.022774;38.109375
0.022994;38.109375
0.023134;38.109375
0.023036;38.109375
0.022840;38.109375
0.022903;38.140625
0.022807;38.140625
0.022172;38.140625
0.021332;38.140625
0.021262;38.140625
0.021271;38.171875
0.021117;38.171875
0.021159;38.171875
0.021518;38.171875
0.021548;38.171875
0.021558;38.203125
0.021839;38.203125
0.021980;38.203125
0.022098;38.203125
0.021974;38.203125
0.022047;38.218750
0.022066;38.218750
0.021603;38.218750
0.021215;38.218750
0.020975;38.218750
0.020977;38.234375
0.020911;38.234375
0.020814;38.234375
0.021013;38.234375
0.021074;38.234375
0.020833;38.265625
0.020691;38.265625
0.020777;38.265625
0.021024;38.265625
0.020914;38.265625
0.020526;38.296875
0.020484;38.296875
0.020744;38.296875
0.020602;38.296875
0.020148;38.296875
0.020046;38.328125
0.020190;38.328125
0.020191;38.328125
0.020129;38.328125
0.020292;38.359375
0.020579;38.359375
0.020492;38.359375
0.020499;38.359375
0.020587;38.359375
0.021044;38.375000
0.020997;38.375000
0.020877;38.375000
0.021350;38.375000
0.021697;38.375000
0.021745;38.406250
0.021610;38.406250
0.022025;38.406250
0.022293;38.406250
0.022344;38.406250
0.022230;38.437500
0.022320;38.437500
0.022676;38.437500
0.022767;38.437500
0.022771;38.437500
0.022865;38.484375
0.022953;38.484375
0.022958;38.484375
0.022867;38.484375
0.022978;38.484375
0.023059;38.515625
0.023230;38.515625
0.022990;38.515625
0.022925;38.515625
0.022938;38.546875
0.023152;38.546875
0.023126;38.546875
0.023126;38.546875
0.023061;38.546875
0.022988;38.593750
0.023033;38.593750
0.023011;38.593750
0.022842;38.593750
0.022757;38.593750
0.022710;38.609375
0.022766;38.609375
0.022819;38.609375
0.022681;38.609375
0.022435;38.609375
0.022569;38.625000
0.022847;38.625000
0.022933;38.625000
0.022945;38.625000
0.022969;38.625000
0.023177;38.640625
0.023188;38.640625
0.023181;38.640625
0.023151;38.640625
0.022960;38.671875
0.022575;38.671875
0.022404;38.671875
0.022507;38.671875
0.022774;38.671875
0.022547;38.671875
0.022180;38.671875
0.022146;38.671875
0.022561;38.687500
0.022423;38.687500
0.022243;38.687500
0.022257;38.687500
0.022267;38.703125
0.022256;38.703125
0.022228;38.703125
0.022241;38.718750
0.022083;38.718750
0.021734;38.718750
0.021777;38.718750
0.022075;38.750000
0.022121;38.750000
0.021983;38.750000
0.021755;38.750000
0.022093;38.765625
0.022384;38.765625
0.022617;38.765625
0.022617;38.796875
0.022637;38.796875
0.022663;38.796875
0.022645;38.796875
0.022645;38.812500
0.022640;38.812500
0.022405;38.812500
0.022344;38.828125
0.022583;38.828125
0.022695;38.828125
0.022690;38.828125
0.022596;38.828125
0.022546;38.859375
0.022710;38.859375
0.022715;38.859375
0.022541;38.859375
0.022461;38.890625
0.022533;38.890625
0.022428;38.890625
0.022302;38.890625
0.022276;38.890625
0.022263;38.890625
0.022123;38.890625
0.021853;38.921875
0.022020;38.921875
0.022186;38.921875
0.022220;38.921875
0.021754;38.921875
0.021656;38.937500
0.022242;38.937500
0.021986;38.937500
0.021600;38.937500
0.021581;38.937500
0.021594;38.968750
0.021113;38.968750
0.020824;38.968750
0.020800;38.968750
0.020764;38.968750
0.020661;38.984375
0.020263;38.984375
0.020229;38.984375
0.020552;38.984375
0.020501;38.984375
0.020420;39.000000
0.020668;39.000000
0.021058;39.000000
0.021140;39.015625
0.021055;39.015625
0.020788;39.015625
0.020902;39.015625
0.020854;39.031250
0.020839;39.031250
0.020557;39.031250
0.020569;39.031250
0.020593;39.031250
0.020616;39.031250
0.020891;39.031250
0.020998;39.062500
0.020955;39.062500
0.021000;39.062500
0.021076;39.062500
0.021543;39.093750
0.021622;39.093750
0.021601;39.093750
0.021715;39.140625
0.021764;39.140625
0.021499;39.140625
0.021223;39.140625
0.021181;39.140625
0.021174;39.140625
0.021163;39.140625
0.020941;39.156250
0.021308;39.156250
0.021811;39.156250
0.021811;39.156250
0.022290;39.218750
0.022690;39.218750
0.022984;39.218750
0.022957;39.218750
0.022663;39.218750
0.022720;39.218750
0.022760;39.218750
0.022645;39.234375
0.022215;39.234375
0.022223;39.234375
0.022219;39.234375
0.022205;39.281250
0.022325;39.281250
0.022716;39.281250
0.022905;39.281250
0.022907;39.296875
0.022995;39.296875
0.023393;39.296875
0.023682;39.312500
0.023404;39.312500
0.023111;39.312500
0.023146;39.312500
0.023131;39.328125
0.022809;39.328125
0.022516;39.328125
0.022274;39.343750
0.022277;39.343750
0.022306;39.343750
0.022399;39.343750
0.022523;39.359375
0.022729;39.359375
0.022828;39.359375
0.023019;39.359375
0.023175;39.375000
0.023383;39.375000
0.023238;39.375000
0.023263;39.421875
0.023252;39.421875
0.023149;39.421875
0.023015;39.437500
0.022970;39.437500
0.022907;39.437500
0.022883;39.437500
0.022897;39.484375
0.023379;39.484375
0.023375;39.484375
0.023498;39.484375
0.023550;39.484375
0.023686;39.484375
0.024151;39.484375
0.024357;39.500000
0.024204;39.500000
0.024091;39.500000
0.024160;39.500000
0.024137;39.546875
0.023615;39.546875
0.023447;39.546875
0.023413;39.546875
0.023348;39.546875
0.023232;39.546875
0.023194;39.546875
0.023215;39.546875
0.023175;39.562500
0.023347;39.562500
0.023505;39.562500
0.023684;39.578125
0.023619;39.578125
0.023527;39.578125
0.023521;39.578125
0.023518;39.578125
0.023269;39.578125
0.022983;39.578125
0.022881;39.625000
0.022981;39.625000
0.022939;39.625000
0.022958;39.625000
0.023497;39.625000
0.024169;39.625000
0.024329;39.625000
0.024465;39.625000
0.024795;39.640625
0.025289;39.640625
0.025215;39.640625
0.025085;39.640625
0.025089;39.656250
0.025074;39.656250
0.024902;39.656250
0.024459;39.671875
0.024402;39.671875
0.024420;39.671875
0.024343;39.671875
0.024423;39.703125
0.024475;39.703125
0.024478;39.703125
0.024456;39.750000
0.024613;39.750000
0.024985;39.750000
0.025338;39.765625
0.025044;39.765625
0.024693;39.765625
0.024859;39.765625
0.024455;39.812500
0.024158;39.812500
0.023879;39.812500
0.023802;39.812500
0.023738;39.828125
0.023662;39.828125
0.023683;39.828125
0.023802;39.828125
0.023796;39.859375
0.023937;39.859375
0.024077;39.859375
0.024410;39.859375
0.024418;39.859375
0.024078;39.890625
0.023964;39.890625
0.024031;39.890625
0.023963;39.890625
0.023652;39.890625
0.023246;39.937500
0.023231;39.937500
0.023234;39.937500
0.023206;39.937500
0.023182;39.937500
0.023281;39.953125
0.023258;39.953125
0.023376;39.953125
0.023607;39.953125
0.023869;39.953125
0.023751;39.968750
0.023592;39.968750
0.023519;39.968750
0.023510;39.968750
0.023360;39.984375
0.023208;39.984375
0.022766;39.984375
0.022784;39.984375
0.022690;39.984375
0.022564;40.015625
0.022720;40.015625
0.022798;40.015625
0.022734;40.015625
0.022843;40.015625
0.022902;40.046875
0.023033;40.046875
0.022569;40.046875
0.022608;40.046875
0.022695;40.046875
0.022834;40.078125
0.022713;40.078125
0.022280;40.078125
0.021951;40.078125
0.021973;40.078125
0.022051;40.109375
0.022022;40.109375
0.022114;40.109375
0.022095;40.109375
0.022077;40.140625
0.022229;40.140625
0.022317;40.140625
0.022340;40.140625
0.022345;40.171875
0.022451;40.171875
0.022519;40.171875
0.022333;40.171875
0.022257;40.171875
0.022146;40.187500
0.022183;40.187500
0.021977;40.187500
0.021910;40.187500
0.021907;40.187500
