2.375367;0.015625
2.424242;0.046875
2.468231;0.046875
2.551320;0.046875
2.512219;0.062500
2.443793;0.062500
2.370479;0.062500
2.272727;0.062500
2.238514;0.062500
2.248289;0.078125
2.297165;0.078125
2.326491;0.078125
2.419355;0.078125
2.390029;0.078125
2.434018;0.078125
2.404692;0.078125
2.409580;0.078125
2.365591;0.093750
2.414467;0.093750
2.380254;0.093750
2.404692;0.093750
2.404692;0.093750
2.414467;0.109375
2.429130;0.109375
2.453568;0.109375
2.424242;0.109375
2.390029;0.140625
2.409580;0.140625
2.468231;0.140625
2.526882;0.140625
2.546432;0.140625
2.507331;0.171875
2.517107;0.171875
2.404692;0.171875
2.365591;0.171875
2.326491;0.203125
2.326491;0.203125
2.370479;0.203125
2.341153;0.203125
2.355816;0.234375
2.385142;0.234375
2.350929;0.234375
2.370479;0.234375
2.482893;0.281250
2.600196;0.281250
2.624633;0.281250
2.590420;0.281250
2.463343;0.296875
2.473118;0.296875
2.350929;0.296875
2.355816;0.312500
2.297165;0.312500
2.350929;0.312500
2.375367;0.343750
2.390029;0.343750
2.424242;0.343750
2.443793;0.359375
2.424242;0.359375
2.409580;0.359375
2.429130;0.375000
2.429130;0.375000
2.394917;0.375000
2.390029;0.375000
2.355816;0.375000
2.424242;0.375000
2.458456;0.375000
2.473118;0.421875
2.487781;0.421875
2.526882;0.421875
2.468231;0.437500
2.424242;0.437500
2.375367;0.437500
2.399804;0.484375
2.438905;0.484375
2.434018;0.484375
2.487781;0.531250
2.434018;0.531250
2.414467;0.531250
2.316716;0.531250
2.385142;0.531250
2.311828;0.546875
2.331378;0.546875
2.365591;0.546875
2.385142;0.546875
2.434018;0.578125
2.438905;0.578125
2.385142;0.578125
2.375367;0.578125
2.365591;0.609375
2.346041;0.609375
2.380254;0.609375
2.443793;0.609375
2.478006;0.625000
2.458456;0.625000
2.487781;0.625000
2.468231;0.625000
2.458456;0.656250
2.517107;0.656250
2.453568;0.656250
2.419355;0.656250
2.370479;0.656250
2.355816;0.671875
2.316716;0.671875
2.326491;0.671875
2.360704;0.671875
2.326491;0.718750
2.394917;0.718750
2.443793;0.718750
2.463343;0.718750
2.434018;0.750000
2.390029;0.750000
2.487781;0.750000
2.399804;0.750000
2.453568;0.750000
2.473118;0.765625
2.463343;0.765625
2.492669;0.765625
2.497556;0.765625
2.458456;0.812500
2.419355;0.812500
2.365591;0.812500
2.346041;0.812500
2.390029;0.828125
2.380254;0.828125
2.394917;0.828125
2.497556;0.828125
2.561095;0.843750
2.536657;0.843750
2.487781;0.843750
2.492669;0.843750
2.409580;0.843750
2.424242;0.859375
2.375367;0.859375
2.316716;0.859375
2.321603;0.859375
2.394917;0.890625
2.355816;0.890625
2.341153;0.890625
2.394917;0.890625
2.434018;0.890625
2.419355;0.906250
2.394917;0.906250
2.380254;0.906250
2.429130;0.906250
2.453568;0.953125
2.434018;0.953125
2.443793;0.953125
2.434018;0.953125
2.448680;0.984375
2.453568;0.984375
2.448680;0.984375
2.458456;0.984375
2.463343;0.984375
2.448680;1.000000
2.419355;1.000000
2.390029;1.000000
2.429130;1.000000
2.370479;1.031250
2.429130;1.031250
2.404692;1.031250
2.375367;1.031250
2.424242;1.046875
2.419355;1.046875
2.429130;1.046875
2.409580;1.046875
2.370479;1.046875
2.390029;1.093750
2.375367;1.093750
2.419355;1.093750
2.448680;1.093750
2.502444;1.093750
2.507331;1.109375
2.473118;1.109375
2.463343;1.109375
2.565982;1.109375
2.463343;1.140625
2.473118;1.140625
2.497556;1.140625
2.478006;1.140625
2.419355;1.171875
2.365591;1.171875
2.341153;1.171875
2.380254;1.171875
2.429130;1.187500
2.424242;1.187500
2.434018;1.187500
2.468231;1.187500
2.438905;1.187500
2.409580;1.234375
2.385142;1.234375
2.394917;1.234375
2.370479;1.234375
2.390029;1.265625
2.394917;1.265625
2.385142;1.265625
2.394917;1.265625
2.385142;1.265625
2.341153;1.296875
2.380254;1.296875
2.346041;1.296875
2.409580;1.296875
2.487781;1.328125
2.497556;1.328125
2.478006;1.328125
2.438905;1.328125
2.380254;1.328125
2.346041;1.328125
2.346041;1.328125
2.370479;1.375000
2.380254;1.375000
2.424242;1.375000
2.429130;1.375000
2.419355;1.390625
2.385142;1.390625
2.404692;1.390625
2.360704;1.421875
2.394917;1.421875
2.409580;1.421875
2.443793;1.421875
2.409580;1.437500
2.404692;1.437500
2.424242;1.437500
2.438905;1.437500
2.394917;1.437500
2.438905;1.437500
2.443793;1.437500
2.429130;1.453125
2.429130;1.453125
2.429130;1.453125
2.385142;1.468750
2.434018;1.468750
2.429130;1.468750
2.429130;1.500000
2.473118;1.500000
2.468231;1.500000
2.409580;1.515625
2.390029;1.515625
2.443793;1.515625
2.434018;1.531250
2.380254;1.531250
2.419355;1.531250
2.399804;1.531250
2.443793;1.546875
2.414467;1.546875
2.365591;1.546875
2.365591;1.593750
2.394917;1.593750
2.409580;1.593750
2.390029;1.625000
2.458456;1.625000
2.458456;1.625000
2.458456;1.625000
2.492669;1.625000
2.482893;1.625000
2.468231;1.625000
2.419355;1.671875
2.438905;1.671875
2.424242;1.671875
2.429130;1.671875
2.394917;1.687500
2.365591;1.687500
2.365591;1.687500
2.370479;1.734375
2.346041;1.734375
2.409580;1.734375
2.409580;1.734375
2.453568;1.750000
2.448680;1.750000
2.409580;1.750000
2.463343;1.750000
2.497556;1.750000
2.473118;1.750000
2.438905;1.796875
2.414467;1.796875
2.375367;1.796875
2.355816;1.796875
2.321603;1.812500
2.336266;1.812500
2.341153;1.812500
2.380254;1.843750
2.448680;1.843750
2.468231;1.843750
2.453568;1.859375
2.502444;1.859375
2.521994;1.859375
2.502444;1.859375
2.468231;1.890625
2.448680;1.890625
2.394917;1.890625
2.438905;1.890625
2.419355;1.890625
2.409580;1.906250
2.375367;1.906250
2.419355;1.906250
2.380254;1.906250
2.336266;1.937500
2.409580;1.937500
2.443793;1.937500
2.458456;1.937500
2.404692;1.968750
2.458456;1.968750
2.390029;1.968750
2.341153;1.968750
2.399804;2.000000
2.355816;2.000000
2.434018;2.000000
2.404692;2.062500
2.370479;2.062500
2.350929;2.062500
2.370479;2.062500
2.370479;2.093750
2.394917;2.093750
2.487781;2.093750
2.521994;2.093750
2.497556;2.093750
2.429130;2.093750
2.399804;2.093750
2.419355;2.109375
2.346041;2.109375
2.375367;2.109375
2.424242;2.109375
2.424242;2.109375
2.414467;2.109375
2.390029;2.156250
2.399804;2.156250
2.453568;2.156250
2.409580;2.156250
2.429130;2.171875
2.507331;2.171875
2.531769;2.171875
2.570870;2.218750
2.492669;2.218750
2.536657;2.218750
2.448680;2.218750
2.385142;2.234375
2.370479;2.234375
2.346041;2.234375
2.350929;2.281250
2.341153;2.281250
2.336266;2.281250
2.360704;2.281250
2.390029;2.296875
2.355816;2.296875
2.375367;2.296875
2.399804;2.296875
2.394917;2.296875
2.409580;2.296875
2.473118;2.296875
2.605083;2.328125
2.585533;2.328125
2.507331;2.328125
2.468231;2.343750
2.409580;2.343750
2.311828;2.343750
2.248289;2.390625
2.223851;2.390625
2.262952;2.390625
2.267840;2.390625
2.350929;2.406250
2.385142;2.406250
2.419355;2.406250
2.409580;2.453125
2.385142;2.453125
2.385142;2.453125
2.414467;2.453125
2.424242;2.468750
2.414467;2.468750
2.409580;2.468750
2.438905;2.468750
2.419355;2.468750
2.404692;2.468750
2.355816;2.515625
2.375367;2.515625
2.385142;2.515625
2.390029;2.515625
2.404692;2.531250
2.443793;2.531250
2.448680;2.531250
2.409580;2.578125
2.341153;2.578125
2.438905;2.578125
2.419355;2.578125
2.443793;2.578125
2.424242;2.578125
2.424242;2.578125
2.409580;2.625000
2.390029;2.625000
2.375367;2.625000
2.375367;2.625000
2.385142;2.640625
2.473118;2.640625
2.590420;2.640625
2.580645;2.687500
2.556207;2.687500
2.448680;2.687500
2.575758;2.687500
2.541544;2.703125
2.453568;2.703125
2.482893;2.703125
2.390029;2.718750
2.370479;2.718750
2.346041;2.718750
2.297165;2.718750
2.262952;2.750000
2.306940;2.750000
2.282502;2.750000
2.326491;2.750000
2.429130;2.750000
2.429130;2.781250
2.458456;2.781250
2.463343;2.781250
2.414467;2.781250
2.448680;2.812500
2.390029;2.812500
2.370479;2.812500
2.409580;2.812500
2.468231;2.843750
2.502444;2.843750
2.492669;2.843750
2.429130;2.843750
2.390029;2.859375
2.350929;2.859375
2.311828;2.859375
2.355816;2.906250
2.370479;2.906250
2.370479;2.906250
2.404692;2.906250
2.438905;2.921875
2.390029;2.921875
2.429130;2.921875
2.390029;2.921875
2.434018;2.921875
2.434018;2.921875
2.414467;2.968750
2.365591;2.968750
2.365591;2.968750
2.409580;2.968750
2.390029;2.968750
2.414467;2.968750
2.390029;2.968750
2.424242;3.015625
2.394917;3.015625
2.419355;3.015625
2.404692;3.015625
2.443793;3.031250
2.458456;3.031250
2.458456;3.031250
2.458456;3.031250
2.448680;3.031250
2.404692;3.031250
2.375367;3.078125
2.360704;3.078125
2.375367;3.078125
2.370479;3.078125
2.404692;3.078125
2.438905;3.078125
2.434018;3.078125
2.414467;3.125000
2.438905;3.125000
2.434018;3.125000
2.482893;3.125000
2.565982;3.140625
2.546432;3.140625
2.512219;3.140625
2.453568;3.187500
2.390029;3.187500
2.336266;3.187500
2.336266;3.187500
2.360704;3.203125
2.375367;3.203125
2.434018;3.203125
2.487781;3.218750
2.463343;3.218750
2.443793;3.218750
2.458456;3.250000
2.468231;3.250000
2.531769;3.250000
2.478006;3.250000
2.448680;3.250000
2.394917;3.250000
2.355816;3.250000
2.297165;3.296875
2.287390;3.296875
2.302053;3.296875
2.375367;3.296875
2.394917;3.312500
2.429130;3.312500
2.438905;3.312500
2.438905;3.359375
2.438905;3.359375
2.429130;3.359375
2.414467;3.406250
2.448680;3.406250
2.443793;3.406250
2.438905;3.406250
2.424242;3.421875
2.380254;3.421875
2.385142;3.421875
2.355816;3.421875
2.355816;3.421875
2.336266;3.421875
2.399804;3.468750
2.399804;3.468750
2.463343;3.468750
2.453568;3.468750
2.424242;3.484375
2.443793;3.484375
2.414467;3.484375
2.463343;3.531250
2.517107;3.531250
2.531769;3.531250
2.517107;3.531250
2.478006;3.546875
2.453568;3.546875
2.473118;3.546875
2.502444;3.546875
2.463343;3.546875
2.385142;3.546875
2.419355;3.593750
2.394917;3.593750
2.331378;3.593750
2.385142;3.593750
2.355816;3.609375
2.380254;3.609375
2.424242;3.609375
2.497556;3.640625
2.453568;3.640625
2.390029;3.640625
2.331378;3.671875
2.277615;3.671875
2.306940;3.671875
2.365591;3.671875
2.385142;3.687500
2.424242;3.687500
2.453568;3.687500
2.434018;3.687500
2.453568;3.687500
2.434018;3.687500
2.419355;3.734375
2.424242;3.734375
2.380254;3.734375
2.385142;3.750000
2.394917;3.750000
2.380254;3.750000
2.375367;3.796875
2.355816;3.796875
2.434018;3.796875
2.414467;3.796875
2.448680;3.812500
2.492669;3.812500
2.507331;3.812500
2.453568;3.859375
2.419355;3.859375
2.424242;3.859375
2.365591;3.906250
2.380254;3.906250
2.463343;3.906250
2.521994;3.906250
2.526882;3.921875
2.497556;3.921875
2.394917;3.921875
2.365591;3.968750
2.297165;3.968750
2.297165;3.968750
2.321603;3.968750
2.370479;3.968750
2.390029;3.968750
2.390029;3.968750
2.380254;4.015625
2.409580;4.015625
2.429130;4.015625
2.385142;4.015625
2.448680;4.031250
2.468231;4.031250
2.492669;4.031250
2.497556;4.046875
2.531769;4.046875
2.517107;4.046875
2.453568;4.093750
2.385142;4.093750
2.394917;4.093750
2.370479;4.109375
2.390029;4.109375
2.370479;4.109375
2.336266;4.109375
2.424242;4.109375
2.380254;4.109375
2.385142;4.109375
2.385142;4.156250
2.370479;4.156250
2.394917;4.156250
2.394917;4.156250
2.355816;4.171875
2.385142;4.171875
2.370479;4.171875
2.326491;4.171875
2.380254;4.171875
2.424242;4.203125
2.438905;4.203125
2.419355;4.203125
2.448680;4.203125
2.458456;4.234375
2.453568;4.234375
2.434018;4.234375
2.453568;4.234375
2.438905;4.250000
2.429130;4.250000
2.394917;4.250000
2.380254;4.250000
2.404692;4.250000
2.336266;4.265625
2.409580;4.265625
2.434018;4.265625
2.473118;4.265625
2.463343;4.281250
2.438905;4.281250
2.409580;4.281250
2.429130;4.281250
2.429130;4.281250
2.394917;4.328125
2.394917;4.328125
2.380254;4.328125
2.399804;4.328125
2.419355;4.359375
2.394917;4.359375
2.390029;4.359375
2.370479;4.359375
2.365591;4.359375
2.458456;4.375000
2.517107;4.375000
2.546432;4.375000
2.512219;4.375000
2.409580;4.406250
2.429130;4.406250
2.404692;4.406250
2.453568;4.406250
2.526882;4.421875
2.468231;4.421875
2.443793;4.421875
2.350929;4.421875
2.311828;4.421875
2.282502;4.453125
2.267840;4.453125
2.326491;4.453125
2.399804;4.453125
2.434018;4.484375
2.468231;4.484375
2.468231;4.484375
2.482893;4.484375
2.448680;4.484375
2.414467;4.515625
2.399804;4.515625
2.399804;4.515625
2.350929;4.515625
2.370479;4.515625
2.341153;4.531250
2.404692;4.531250
2.434018;4.531250
2.424242;4.531250
2.453568;4.531250
2.468231;4.546875
2.419355;4.546875
2.424242;4.546875
2.409580;4.546875
2.390029;4.578125
2.355816;4.578125
2.365591;4.578125
2.434018;4.578125
2.434018;4.593750
2.458456;4.593750
2.419355;4.593750
2.380254;4.593750
2.380254;4.593750
2.390029;4.640625
2.375367;4.640625
2.399804;4.640625
2.458456;4.640625
2.394917;4.640625
2.336266;4.656250
2.424242;4.656250
2.394917;4.656250
2.375367;4.656250
2.399804;4.687500
2.468231;4.687500
2.482893;4.687500
2.512219;4.687500
2.502444;4.687500
2.429130;4.703125
2.448680;4.703125
2.409580;4.703125
2.390029;4.703125
2.394917;4.718750
2.404692;4.718750
2.375367;4.718750
2.336266;4.718750
2.458456;4.718750
2.458456;4.765625
2.521994;4.765625
2.507331;4.765625
2.458456;4.781250
2.414467;4.781250
2.355816;4.781250
2.292278;4.781250
2.258065;4.796875
2.267840;4.796875
2.297165;4.796875
2.336266;4.796875
2.414467;4.796875
2.443793;4.828125
2.429130;4.828125
2.385142;4.828125
2.478006;4.828125
2.453568;4.859375
2.414467;4.859375
2.424242;4.859375
2.355816;4.859375
2.409580;4.859375
2.404692;4.890625
2.375367;4.890625
2.365591;4.890625
2.390029;4.890625
2.390029;4.890625
2.399804;4.921875
2.429130;4.921875
2.419355;4.921875
2.434018;4.921875
2.365591;4.937500
2.468231;4.937500
2.434018;4.937500
2.414467;4.937500
2.458456;4.937500
2.434018;4.984375
2.424242;4.984375
2.414467;4.984375
2.370479;4.984375
2.375367;4.984375
2.370479;5.015625
2.424242;5.015625
2.458456;5.015625
2.551320;5.015625
2.546432;5.046875
2.497556;5.046875
2.487781;5.046875
2.448680;5.046875
2.360704;5.078125
2.316716;5.078125
2.336266;5.078125
2.370479;5.078125
2.463343;5.078125
2.487781;5.093750
2.463343;5.093750
2.404692;5.093750
2.390029;5.093750
2.380254;5.125000
2.365591;5.125000
2.463343;5.125000
2.463343;5.125000
2.478006;5.125000
2.507331;5.140625
2.497556;5.140625
2.448680;5.140625
2.458456;5.140625
2.341153;5.171875
2.360704;5.171875
2.321603;5.171875
2.321603;5.171875
2.311828;5.187500
2.346041;5.187500
2.355816;5.187500
2.394917;5.187500
2.492669;5.187500
2.497556;5.218750
2.458456;5.218750
2.409580;5.218750
2.438905;5.218750
2.331378;5.218750
2.346041;5.250000
2.370479;5.250000
2.394917;5.250000
2.380254;5.250000
2.375367;5.281250
2.350929;5.281250
2.346041;5.281250
2.370479;5.281250
2.375367;5.281250
2.370479;5.312500
2.429130;5.312500
2.473118;5.312500
2.453568;5.312500
2.414467;5.312500
2.482893;5.343750
2.453568;5.343750
2.438905;5.343750
2.429130;5.343750
2.390029;5.359375
2.394917;5.359375
2.380254;5.359375
2.370479;5.359375
2.346041;5.359375
2.419355;5.390625
2.365591;5.390625
2.380254;5.390625
2.429130;5.390625
2.463343;5.390625
2.453568;5.406250
2.434018;5.406250
2.390029;5.406250
2.370479;5.437500
2.375367;5.437500
2.375367;5.437500
2.365591;5.437500
2.419355;5.468750
2.390029;5.468750
2.375367;5.468750
2.385142;5.515625
2.443793;5.515625
2.424242;5.515625
2.419355;5.531250
2.429130;5.531250
2.448680;5.531250
2.448680;5.531250
2.453568;5.546875
2.404692;5.546875
2.453568;5.546875
2.492669;5.562500
2.478006;5.562500
2.507331;5.562500
2.458456;5.562500
2.394917;5.593750
2.350929;5.593750
2.326491;5.593750
2.277615;5.640625
2.302053;5.640625
2.365591;5.640625
2.409580;5.640625
2.409580;5.640625
2.326491;5.640625
2.380254;5.640625
2.370479;5.671875
2.365591;5.671875
2.360704;5.671875
2.404692;5.671875
2.424242;5.671875
2.419355;5.671875
2.409580;5.671875
2.409580;5.687500
2.394917;5.687500
2.355816;5.687500
2.346041;5.687500
2.394917;5.703125
2.414467;5.703125
2.419355;5.703125
2.331378;5.734375
2.424242;5.734375
2.399804;5.734375
2.409580;5.734375
2.399804;5.750000
2.424242;5.750000
2.448680;5.750000
2.419355;5.796875
2.375367;5.796875
2.350929;5.796875
2.341153;5.796875
2.336266;5.796875
2.390029;5.796875
2.394917;5.796875
2.448680;5.812500
2.478006;5.812500
2.404692;5.812500
2.482893;5.812500
2.419355;5.828125
2.404692;5.828125
2.385142;5.828125
2.385142;5.859375
2.409580;5.859375
2.424242;5.859375
2.404692;5.859375
2.375367;5.875000
2.360704;5.875000
2.370479;5.875000
2.390029;5.875000
2.463343;5.875000
2.482893;5.875000
2.526882;5.890625
2.463343;5.890625
2.531769;5.890625
2.419355;5.890625
2.414467;5.890625
2.434018;5.921875
2.443793;5.921875
2.424242;5.921875
2.385142;5.921875
2.306940;5.921875
2.287390;5.937500
2.297165;5.937500
2.375367;5.937500
2.419355;5.937500
2.453568;5.953125
2.434018;5.953125
2.429130;5.953125
2.375367;5.953125
2.350929;5.953125
2.390029;5.984375
2.390029;5.984375
2.370479;5.984375
2.448680;5.984375
2.424242;6.000000
2.404692;6.000000
2.360704;6.000000
2.341153;6.000000
2.360704;6.000000
2.341153;6.000000
2.380254;6.031250
2.419355;6.031250
2.434018;6.031250
2.429130;6.031250
2.429130;6.031250
2.390029;6.062500
2.414467;6.062500
2.434018;6.062500
2.443793;6.062500
2.419355;6.078125
2.429130;6.078125
2.390029;6.078125
2.375367;6.125000
2.399804;6.125000
2.414467;6.125000
2.380254;6.125000
2.443793;6.125000
2.434018;6.125000
2.429130;6.125000
2.419355;6.125000
2.404692;6.140625
2.429130;6.140625
2.438905;6.140625
2.482893;6.187500
2.453568;6.187500
2.453568;6.187500
2.429130;6.187500
2.385142;6.203125
2.360704;6.203125
2.350929;6.203125
2.365591;6.203125
2.394917;6.203125
2.438905;6.203125
2.453568;6.203125
2.419355;6.218750
2.394917;6.218750
2.409580;6.218750
2.390029;6.218750
2.385142;6.250000
2.414467;6.250000
2.424242;6.250000
2.414467;6.250000
2.429130;6.250000
2.370479;6.281250
2.370479;6.281250
2.394917;6.281250
2.385142;6.281250
2.409580;6.281250
2.443793;6.312500
2.458456;6.312500
2.487781;6.312500
2.497556;6.312500
2.443793;6.312500
2.390029;6.343750
2.419355;6.343750
2.375367;6.343750
2.375367;6.343750
2.414467;6.359375
2.414467;6.359375
2.360704;6.359375
2.360704;6.406250
2.385142;6.406250
2.394917;6.406250
2.448680;6.406250
2.507331;6.421875
2.541544;6.421875
2.487781;6.421875
2.507331;6.437500
2.453568;6.437500
2.331378;6.437500
2.375367;6.437500
2.385142;6.468750
2.404692;6.468750
2.404692;6.468750
2.385142;6.468750
2.350929;6.468750
2.302053;6.468750
2.321603;6.468750
2.350929;6.500000
2.404692;6.500000
2.453568;6.500000
2.526882;6.500000
2.497556;6.515625
2.478006;6.515625
2.424242;6.515625
2.443793;6.531250
2.419355;6.531250
2.448680;6.531250
2.512219;6.531250
2.458456;6.562500
2.434018;6.562500
2.404692;6.562500
2.360704;6.578125
2.341153;6.578125
2.302053;6.578125
2.355816;6.578125
2.399804;6.578125
2.414467;6.578125
2.346041;6.578125
2.429130;6.578125
2.443793;6.578125
2.370479;6.578125
2.404692;6.609375
2.380254;6.609375
2.424242;6.609375
2.424242;6.609375
2.385142;6.609375
2.375367;6.609375
2.346041;6.609375
2.326491;6.609375
2.370479;6.625000
2.448680;6.625000
2.434018;6.625000
2.458456;6.656250
2.404692;6.656250
2.492669;6.656250
2.478006;6.656250
2.434018;6.671875
2.429130;6.671875
2.385142;6.671875
2.443793;6.703125
2.453568;6.703125
2.458456;6.703125
2.443793;6.718750
2.414467;6.718750
2.385142;6.718750
2.385142;6.718750
2.424242;6.750000
2.399804;6.750000
2.394917;6.750000
2.380254;6.750000
2.375367;6.765625
2.414467;6.765625
2.424242;6.765625
2.453568;6.812500
2.478006;6.812500
2.492669;6.812500
2.468231;6.812500
2.448680;6.812500
2.419355;6.812500
2.399804;6.812500
2.478006;6.843750
2.507331;6.843750
2.517107;6.843750
2.507331;6.843750
2.434018;6.843750
2.478006;6.843750
2.365591;6.843750
2.287390;6.875000
2.365591;6.875000
2.311828;6.875000
2.365591;6.875000
2.409580;6.875000
2.399804;6.875000
2.365591;6.875000
2.390029;6.890625
2.390029;6.890625
2.346041;6.890625
2.409580;6.921875
2.448680;6.921875
2.438905;6.921875
2.390029;6.968750
2.448680;6.968750
2.404692;6.968750
2.311828;6.968750
2.414467;6.984375
2.370479;6.984375
2.414467;6.984375
2.438905;7.031250
2.409580;7.031250
2.380254;7.031250
2.380254;7.031250
2.394917;7.046875
2.385142;7.046875
2.434018;7.046875
2.463343;7.093750
2.478006;7.093750
2.399804;7.093750
2.487781;7.093750
2.419355;7.109375
2.434018;7.109375
2.487781;7.109375
2.517107;7.109375
2.473118;7.109375
2.473118;7.109375
2.424242;7.156250
2.380254;7.156250
2.326491;7.156250
2.350929;7.156250
2.360704;7.156250
2.390029;7.156250
2.390029;7.156250
2.380254;7.171875
2.370479;7.171875
2.399804;7.171875
2.468231;7.171875
2.541544;7.218750
2.624633;7.218750
2.673509;7.218750
2.673509;7.218750
2.546432;7.250000
2.404692;7.250000
2.287390;7.250000
2.277615;7.296875
2.248289;7.296875
2.214076;7.296875
2.306940;7.312500
2.360704;7.312500
2.409580;7.312500
2.390029;7.312500
2.463343;7.359375
2.360704;7.359375
2.409580;7.359375
2.365591;7.359375
2.394917;7.375000
2.414467;7.375000
2.385142;7.375000
2.375367;7.390625
2.370479;7.390625
2.380254;7.390625
2.355816;7.390625
2.404692;7.406250
2.434018;7.406250
2.419355;7.406250
2.434018;7.437500
2.385142;7.437500
2.424242;7.437500
2.375367;7.437500
2.385142;7.437500
2.429130;7.468750
2.380254;7.468750
2.434018;7.468750
2.399804;7.468750
2.375367;7.468750
2.399804;7.500000
2.346041;7.500000
2.385142;7.500000
2.424242;7.500000
2.458456;7.500000
2.443793;7.515625
2.429130;7.515625
2.429130;7.515625
2.355816;7.515625
2.419355;7.515625
2.443793;7.531250
2.448680;7.531250
2.458456;7.531250
2.458456;7.531250
2.468231;7.562500
2.473118;7.562500
2.517107;7.562500
2.507331;7.562500
2.482893;7.609375
2.438905;7.609375
2.414467;7.609375
2.394917;7.656250
2.341153;7.656250
2.302053;7.656250
2.375367;7.656250
2.404692;7.656250
2.419355;7.687500
2.468231;7.687500
2.438905;7.687500
2.458456;7.687500
2.473118;7.687500
2.448680;7.703125
2.438905;7.703125
2.429130;7.703125
2.399804;7.703125
2.380254;7.734375
2.375367;7.734375
2.350929;7.734375
2.302053;7.734375
2.399804;7.734375
2.336266;7.781250
2.355816;7.781250
2.429130;7.781250
2.424242;7.781250
2.394917;7.781250
2.414467;7.796875
2.394917;7.796875
2.380254;7.796875
2.429130;7.843750
2.414467;7.843750
2.414467;7.843750
2.419355;7.843750
2.404692;7.843750
2.429130;7.843750
2.394917;7.843750
2.414467;7.843750
2.370479;7.859375
2.409580;7.859375
2.380254;7.859375
2.419355;7.906250
2.409580;7.906250
2.414467;7.906250
2.394917;7.906250
2.409580;7.937500
2.390029;7.937500
2.331378;7.937500
2.399804;7.937500
2.473118;7.968750
2.458456;7.968750
2.399804;7.968750
2.429130;8.000000
2.438905;8.000000
2.380254;8.000000
2.375367;8.000000
2.414467;8.031250
2.453568;8.031250
2.492669;8.031250
2.546432;8.031250
2.580645;8.031250
2.609971;8.031250
2.556207;8.031250
2.556207;8.031250
2.502444;8.046875
2.497556;8.046875
2.478006;8.046875
2.380254;8.062500
2.478006;8.062500
2.492669;8.062500
2.458456;8.062500
2.478006;8.078125
2.487781;8.078125
2.497556;8.078125
2.394917;8.125000
2.316716;8.125000
2.238514;8.125000
2.282502;8.125000
2.258065;8.171875
2.306940;8.171875
2.399804;8.171875
2.448680;8.171875
2.468231;8.187500
2.438905;8.187500
2.424242;8.187500
2.424242;8.203125
2.390029;8.203125
2.341153;8.203125
2.370479;8.203125
2.365591;8.250000
2.336266;8.250000
2.326491;8.250000
2.321603;8.250000
2.355816;8.265625
2.380254;8.265625
2.385142;8.265625
2.438905;8.281250
2.458456;8.281250
2.443793;8.281250
2.365591;8.281250
2.448680;8.281250
2.424242;8.281250
2.443793;8.281250
2.482893;8.281250
2.487781;8.296875
2.468231;8.296875
2.424242;8.296875
2.409580;8.312500
2.365591;8.312500
2.350929;8.312500
2.341153;8.312500
2.390029;8.328125
2.409580;8.328125
2.399804;8.328125
2.399804;8.375000
2.390029;8.375000
2.443793;8.375000
2.468231;8.375000
2.443793;8.375000
2.468231;8.375000
2.448680;8.375000
2.521994;8.375000
2.517107;8.390625
2.478006;8.390625
2.468231;8.390625
2.438905;8.406250
2.443793;8.406250
2.478006;8.406250
2.482893;8.406250
2.429130;8.421875
2.326491;8.421875
2.394917;8.421875
2.365591;8.468750
2.321603;8.468750
2.336266;8.468750
2.375367;8.468750
2.453568;8.468750
2.458456;8.468750
2.443793;8.468750
2.394917;8.468750
2.404692;8.484375
2.355816;8.484375
2.365591;8.484375
2.394917;8.531250
2.380254;8.531250
2.385142;8.531250
2.385142;8.531250
2.336266;8.546875
2.424242;8.546875
2.404692;8.546875
2.497556;8.546875
2.517107;8.546875
2.546432;8.546875
2.492669;8.546875
2.399804;8.562500
2.365591;8.562500
2.375367;8.562500
2.346041;8.578125
2.360704;8.578125
2.438905;8.578125
2.443793;8.578125
2.453568;8.593750
2.394917;8.593750
2.419355;8.593750
2.399804;8.593750
2.394917;8.609375
2.365591;8.609375
2.429130;8.609375
2.448680;8.625000
2.438905;8.625000
2.468231;8.625000
2.448680;8.625000
2.443793;8.625000
2.443793;8.625000
2.414467;8.625000
2.443793;8.671875
2.399804;8.671875
2.409580;8.671875
2.370479;8.671875
2.380254;8.687500
2.399804;8.687500
2.443793;8.687500
2.394917;8.703125
2.458456;8.703125
2.463343;8.703125
2.434018;8.703125
2.380254;8.718750
2.346041;8.718750
2.370479;8.718750
2.380254;8.718750
2.404692;8.718750
2.468231;8.734375
2.463343;8.734375
2.448680;8.734375
2.424242;8.734375
2.375367;8.750000
2.385142;8.750000
2.390029;8.750000
2.399804;8.750000
2.390029;8.750000
2.390029;8.765625
2.375367;8.765625
2.341153;8.765625
2.404692;8.765625
2.409580;8.765625
2.409580;8.781250
2.443793;8.781250
2.458456;8.781250
2.482893;8.828125
2.414467;8.828125
2.463343;8.828125
2.468231;8.828125
2.434018;8.843750
2.463343;8.843750
2.478006;8.843750
2.443793;8.890625
2.443793;8.890625
2.390029;8.890625
2.365591;8.906250
2.370479;8.906250
2.399804;8.906250
2.468231;8.906250
2.482893;8.937500
2.448680;8.937500
2.419355;8.937500
2.321603;8.937500
2.404692;8.984375
2.350929;8.984375
2.336266;8.984375
2.355816;8.984375
2.394917;9.000000
2.429130;9.000000
2.458456;9.000000
2.429130;9.000000
2.409580;9.000000
2.419355;9.015625
2.409580;9.015625
2.370479;9.015625
2.482893;9.015625
2.570870;9.031250
2.507331;9.031250
2.429130;9.031250
2.497556;9.031250
2.434018;9.031250
2.429130;9.031250
2.507331;9.031250
2.434018;9.046875
2.414467;9.046875
2.380254;9.046875
2.355816;9.093750
2.282502;9.093750
2.311828;9.093750
2.267840;9.093750
2.375367;9.109375
2.458456;9.109375
2.458456;9.109375
2.458456;9.156250
2.355816;9.156250
2.434018;9.156250
2.326491;9.156250
2.341153;9.171875
2.365591;9.171875
2.375367;9.171875
2.394917;9.203125
2.394917;9.203125
2.390029;9.203125
2.350929;9.203125
2.350929;9.218750
2.370479;9.218750
2.385142;9.218750
2.429130;9.218750
2.473118;9.218750
2.453568;9.218750
2.434018;9.265625
2.429130;9.265625
2.419355;9.265625
2.409580;9.265625
2.404692;9.265625
2.443793;9.265625
2.429130;9.265625
2.404692;9.312500
2.394917;9.312500
2.375367;9.312500
2.399804;9.312500
2.380254;9.312500
2.429130;9.328125
2.531769;9.328125
2.551320;9.328125
2.492669;9.328125
2.473118;9.375000
2.404692;9.375000
2.350929;9.375000
2.341153;9.375000
2.385142;9.375000
2.424242;9.390625
2.438905;9.390625
2.453568;9.390625
2.458456;9.390625
2.443793;9.421875
2.443793;9.421875
2.424242;9.421875
2.453568;9.421875
2.438905;9.421875
2.438905;9.437500
2.424242;9.437500
2.385142;9.437500
2.399804;9.437500
2.336266;9.453125
2.350929;9.453125
2.380254;9.453125
2.419355;9.500000
2.458456;9.500000
2.453568;9.500000
2.453568;9.500000
2.492669;9.515625
2.453568;9.515625
2.463343;9.515625
2.463343;9.515625
2.478006;9.515625
2.414467;9.546875
2.360704;9.546875
2.404692;9.546875
2.365591;9.546875
2.311828;9.546875
2.390029;9.562500
2.375367;9.562500
2.404692;9.562500
2.429130;9.609375
2.414467;9.609375
2.414467;9.609375
2.434018;9.609375
2.443793;9.625000
2.424242;9.625000
2.438905;9.625000
2.424242;9.625000
2.409580;9.656250
2.385142;9.656250
2.385142;9.656250
2.394917;9.703125
2.370479;9.703125
2.434018;9.703125
2.414467;9.703125
2.419355;9.703125
2.414467;9.703125
2.390029;9.703125
2.390029;9.750000
2.394917;9.750000
2.375367;9.750000
2.419355;9.750000
2.448680;9.750000
2.473118;9.781250
2.453568;9.781250
2.434018;9.781250
2.458456;9.781250
2.424242;9.781250
2.409580;9.796875
2.409580;9.796875
2.424242;9.796875
2.443793;9.796875
2.468231;9.828125
2.390029;9.828125
2.385142;9.828125
2.390029;9.828125
2.399804;9.828125
2.424242;9.859375
2.443793;9.859375
2.438905;9.859375
2.409580;9.859375
2.399804;9.859375
2.326491;9.875000
2.438905;9.875000
2.419355;9.875000
2.448680;9.875000
2.443793;9.906250
2.443793;9.906250
2.375367;9.906250
2.360704;9.906250
2.385142;9.906250
2.380254;9.937500
2.394917;9.937500
2.409580;9.937500
2.429130;9.984375
2.424242;9.984375
2.453568;9.984375
2.492669;9.984375
2.438905;10.000000
2.424242;10.000000
2.478006;10.000000
2.546432;10.015625
2.521994;10.015625
2.468231;10.015625
2.419355;10.015625
2.390029;10.062500
2.390029;10.062500
2.365591;10.062500
2.390029;10.062500
2.434018;10.078125
2.409580;10.078125
2.390029;10.078125
2.380254;10.125000
2.365591;10.125000
2.365591;10.125000
2.429130;10.125000
2.424242;10.140625
2.394917;10.140625
2.482893;10.140625
2.473118;10.187500
2.414467;10.187500
2.385142;10.187500
2.385142;10.187500
2.321603;10.187500
2.350929;10.187500
2.424242;10.187500
2.453568;10.187500
2.448680;10.203125
2.385142;10.203125
2.448680;10.203125
2.380254;10.250000
2.370479;10.250000
2.448680;10.250000
2.487781;10.250000
2.521994;10.250000
2.521994;10.250000
2.424242;10.250000
2.394917;10.296875
2.385142;10.296875
2.360704;10.296875
2.414467;10.296875
2.438905;10.312500
2.434018;10.312500
2.424242;10.312500
2.399804;10.328125
2.370479;10.328125
2.380254;10.328125
2.365591;10.328125
2.399804;10.328125
2.409580;10.359375
2.385142;10.359375
2.380254;10.359375
2.380254;10.359375
2.385142;10.390625
2.404692;10.390625
2.424242;10.390625
2.468231;10.390625
2.458456;10.390625
2.463343;10.421875
2.424242;10.421875
2.482893;10.421875
2.438905;10.421875
2.394917;10.421875
2.419355;10.453125
2.385142;10.453125
2.414467;10.453125
2.478006;10.453125
2.517107;10.453125
2.478006;10.468750
2.492669;10.468750
2.414467;10.468750
2.404692;10.468750
2.414467;10.468750
2.380254;10.484375
2.385142;10.484375
2.355816;10.484375
2.390029;10.484375
2.453568;10.515625
2.380254;10.515625
2.385142;10.515625
2.424242;10.515625
2.468231;10.515625
2.478006;10.531250
2.458456;10.531250
2.468231;10.531250
2.507331;10.531250
2.463343;10.531250
2.478006;10.546875
2.434018;10.546875
2.404692;10.546875
2.355816;10.546875
2.311828;10.546875
2.272727;10.578125
2.297165;10.578125
2.385142;10.578125
2.414467;10.578125
2.453568;10.578125
2.443793;10.593750
2.424242;10.593750
2.375367;10.593750
2.370479;10.593750
2.380254;10.625000
2.316716;10.625000
2.360704;10.625000
2.399804;10.625000
2.453568;10.625000
2.429130;10.656250
2.360704;10.656250
2.448680;10.656250
2.404692;10.656250
2.399804;10.703125
2.429130;10.703125
2.497556;10.703125
2.526882;10.703125
2.473118;10.703125
2.419355;10.703125
2.385142;10.703125
2.311828;10.703125
2.306940;10.734375
2.336266;10.734375
2.404692;10.734375
2.419355;10.781250
2.419355;10.781250
2.326491;10.781250
2.419355;10.781250
2.414467;10.796875
2.429130;10.796875
2.453568;10.796875
2.492669;10.828125
2.482893;10.828125
2.424242;10.828125
2.365591;10.828125
2.404692;10.875000
2.380254;10.875000
2.375367;10.875000
2.458456;10.890625
2.521994;10.890625
2.526882;10.890625
2.478006;10.890625
2.438905;10.890625
2.399804;10.890625
2.394917;10.890625
2.370479;10.890625
2.321603;10.906250
2.380254;10.906250
2.414467;10.906250
2.399804;10.953125
2.380254;10.953125
2.360704;10.953125
2.360704;10.953125
2.365591;10.953125
2.424242;10.953125
2.468231;10.953125
2.458456;10.968750
2.365591;10.968750
2.502444;10.968750
2.487781;10.968750
2.443793;10.984375
2.517107;11.000000
2.541544;11.000000
2.619746;11.000000
2.551320;11.000000
2.453568;11.015625
2.414467;11.015625
2.341153;11.015625
2.336266;11.031250
2.297165;11.031250
2.306940;11.031250
2.341153;11.078125
2.394917;11.078125
2.448680;11.078125
2.443793;11.078125
2.404692;11.093750
2.453568;11.093750
2.419355;11.093750
2.399804;11.109375
2.390029;11.109375
2.375367;11.109375
2.336266;11.109375
2.297165;11.109375
2.355816;11.109375
2.321603;11.109375
2.346041;11.109375
2.404692;11.140625
2.429130;11.140625
2.438905;11.140625
2.419355;11.140625
2.438905;11.140625
2.438905;11.140625
2.458456;11.140625
2.453568;11.156250
2.512219;11.156250
2.502444;11.156250
2.473118;11.156250
2.404692;11.156250
2.375367;11.156250
2.380254;11.156250
2.297165;11.156250
2.380254;11.156250
2.404692;11.156250
2.424242;11.203125
2.399804;11.203125
2.443793;11.203125
2.453568;11.203125
2.336266;11.218750
2.370479;11.218750
2.424242;11.218750
2.419355;11.265625
2.463343;11.265625
2.468231;11.265625
2.473118;11.265625
2.453568;11.281250
2.429130;11.281250
2.380254;11.281250
2.399804;11.328125
2.429130;11.328125
2.434018;11.328125
2.434018;11.328125
2.350929;11.328125
2.429130;11.375000
2.419355;11.375000
2.399804;11.375000
2.375367;11.375000
2.429130;11.375000
2.443793;11.390625
2.429130;11.390625
2.385142;11.390625
2.360704;11.390625
2.321603;11.390625
2.375367;11.421875
2.390029;11.421875
2.394917;11.421875
2.414467;11.421875
2.478006;11.453125
2.492669;11.453125
2.512219;11.453125
2.419355;11.453125
2.414467;11.453125
2.355816;11.484375
2.385142;11.484375
2.365591;11.484375
2.341153;11.484375
2.346041;11.484375
2.424242;11.500000
2.409580;11.500000
2.453568;11.500000
2.478006;11.500000
2.463343;11.500000
2.453568;11.531250
2.424242;11.531250
2.365591;11.531250
2.399804;11.531250
2.375367;11.546875
2.453568;11.546875
2.443793;11.546875
2.487781;11.546875
2.468231;11.546875
2.424242;11.578125
2.390029;11.578125
2.390029;11.578125
2.355816;11.578125
2.370479;11.578125
2.463343;11.593750
2.453568;11.593750
2.448680;11.593750
2.365591;11.593750
2.434018;11.593750
2.409580;11.609375
2.394917;11.609375
2.438905;11.609375
2.424242;11.609375
2.438905;11.609375
2.404692;11.609375
2.365591;11.609375
2.326491;11.656250
2.390029;11.656250
2.380254;11.656250
2.394917;11.656250
2.463343;11.703125
2.517107;11.703125
2.541544;11.703125
2.512219;11.703125
2.473118;11.718750
2.419355;11.718750
2.390029;11.718750
2.370479;11.718750
2.370479;11.734375
2.355816;11.734375
2.355816;11.734375
2.341153;11.734375
2.321603;11.750000
2.399804;11.750000
2.394917;11.750000
2.370479;11.765625
2.424242;11.765625
2.429130;11.765625
2.438905;11.781250
2.478006;11.781250
2.429130;11.781250
2.482893;11.781250
2.512219;11.828125
2.443793;11.828125
2.448680;11.828125
2.429130;11.828125
2.409580;11.875000
2.394917;11.875000
2.365591;11.875000
2.390029;11.875000
2.385142;11.890625
2.404692;11.890625
2.448680;11.890625
2.453568;11.937500
2.463343;11.937500
2.414467;11.937500
2.438905;11.937500
2.424242;11.937500
2.463343;11.937500
2.429130;11.937500
2.429130;11.937500
2.438905;11.953125
2.399804;11.953125
2.380254;11.953125
2.380254;12.000000
2.399804;12.000000
2.424242;12.000000
2.517107;12.000000
2.561095;12.000000
2.521994;12.000000
2.482893;12.000000
2.438905;12.015625
2.375367;12.015625
2.336266;12.015625
2.341153;12.015625
2.360704;12.062500
2.385142;12.062500
2.414467;12.062500
2.424242;12.062500
2.414467;12.062500
2.492669;12.062500
2.404692;12.062500
2.390029;12.078125
2.394917;12.078125
2.341153;12.078125
2.321603;12.078125
2.326491;12.078125
2.326491;12.078125
2.355816;12.078125
2.385142;12.093750
2.434018;12.093750
2.414467;12.093750
2.438905;12.093750
2.473118;12.140625
2.448680;12.140625
2.438905;12.140625
2.448680;12.140625
2.394917;12.171875
2.370479;12.171875
2.409580;12.171875
2.434018;12.187500
2.390029;12.187500
2.394917;12.187500
2.424242;12.187500
2.468231;12.218750
2.468231;12.218750
2.458456;12.218750
2.429130;12.218750
2.463343;12.218750
2.424242;12.218750
2.424242;12.218750
2.385142;12.265625
2.326491;12.265625
2.360704;12.265625
2.341153;12.265625
2.404692;12.281250
2.419355;12.281250
2.429130;12.281250
2.458456;12.312500
2.468231;12.312500
2.492669;12.312500
2.492669;12.328125
2.453568;12.328125
2.429130;12.328125
2.468231;12.328125
2.394917;12.359375
2.360704;12.359375
2.331378;12.359375
2.350929;12.359375
2.380254;12.359375
2.385142;12.359375
2.448680;12.359375
2.448680;12.375000
2.434018;12.375000
2.443793;12.375000
2.458456;12.375000
2.409580;12.421875
2.473118;12.421875
2.458456;12.421875
2.463343;12.421875
2.448680;12.421875
2.414467;12.421875
2.409580;12.421875
2.390029;12.437500
2.419355;12.437500
2.424242;12.437500
2.399804;12.437500
2.414467;12.437500
2.458456;12.437500
2.438905;12.437500
2.438905;12.437500
2.390029;12.453125
2.434018;12.453125
2.419355;12.453125
2.424242;12.468750
2.438905;12.468750
2.394917;12.468750
2.365591;12.484375
2.272727;12.484375
2.370479;12.484375
2.306940;12.484375
2.302053;12.531250
2.404692;12.531250
2.414467;12.531250
2.414467;12.531250
2.434018;12.546875
2.424242;12.546875
2.414467;12.546875
2.458456;12.578125
2.497556;12.578125
2.541544;12.578125
2.546432;12.578125
2.502444;12.593750
2.399804;12.593750
2.365591;12.593750
2.336266;12.609375
2.336266;12.609375
2.311828;12.609375
2.341153;12.609375
2.399804;12.609375
2.385142;12.609375
2.438905;12.609375
2.453568;12.625000
2.512219;12.625000
2.536657;12.625000
2.536657;12.656250
2.492669;12.656250
2.424242;12.656250
2.355816;12.671875
2.282502;12.671875
2.350929;12.671875
2.297165;12.671875
2.272727;12.718750
2.385142;12.718750
2.458456;12.718750
2.453568;12.718750
2.478006;12.734375
2.473118;12.734375
2.453568;12.734375
2.453568;12.781250
2.424242;12.781250
2.429130;12.781250
2.394917;12.781250
2.390029;12.781250
2.350929;12.781250
2.253177;12.781250
2.350929;12.781250
2.341153;12.796875
2.341153;12.796875
2.370479;12.796875
2.458456;12.796875
2.429130;12.796875
2.458456;12.796875
2.492669;12.843750
2.502444;12.843750
2.482893;12.843750
2.429130;12.843750
2.424242;12.843750
2.360704;12.843750
2.380254;12.843750
2.341153;12.890625
2.311828;12.890625
2.355816;12.890625
2.346041;12.890625
2.394917;12.906250
2.404692;12.906250
2.438905;12.906250
2.429130;12.953125
2.458456;12.953125
2.502444;12.953125
2.521994;12.968750
2.521994;12.968750
2.507331;12.968750
2.443793;12.968750
2.414467;13.015625
2.385142;13.015625
2.346041;13.015625
2.346041;13.015625
2.346041;13.015625
2.375367;13.015625
2.326491;13.015625
2.385142;13.062500
2.429130;13.062500
2.394917;13.062500
2.443793;13.062500
2.419355;13.062500
2.497556;13.062500
2.502444;13.062500
2.458456;13.109375
2.438905;13.109375
2.394917;13.109375
2.365591;13.109375
2.311828;13.125000
2.326491;13.125000
2.341153;13.125000
2.424242;13.171875
2.453568;13.171875
2.512219;13.171875
2.507331;13.171875
2.482893;13.171875
2.419355;13.171875
2.326491;13.171875
2.370479;13.218750
2.350929;13.218750
2.385142;13.218750
2.414467;13.218750
2.399804;13.234375
2.414467;13.234375
2.438905;13.234375
2.458456;13.265625
2.453568;13.265625
2.419355;13.265625
2.419355;13.265625
2.434018;13.265625
2.375367;13.265625
2.399804;13.265625
2.390029;13.312500
2.404692;13.312500
2.424242;13.312500
2.468231;13.312500
2.453568;13.312500
2.438905;13.312500
2.419355;13.312500
2.365591;13.328125
2.355816;13.328125
2.355816;13.328125
2.375367;13.328125
2.350929;13.343750
2.424242;13.343750
2.399804;13.343750
2.399804;13.390625
2.409580;13.390625
2.404692;13.390625
2.409580;13.390625
2.434018;13.390625
2.453568;13.390625
2.409580;13.390625
2.434018;13.437500
2.497556;13.437500
2.526882;13.437500
2.492669;13.437500
2.517107;13.453125
2.399804;13.453125
2.336266;13.453125
2.365591;13.500000
2.360704;13.500000
2.355816;13.500000
2.346041;13.546875
2.380254;13.546875
2.355816;13.546875
2.409580;13.562500
2.429130;13.562500
2.443793;13.562500
2.482893;13.562500
2.512219;13.578125
2.517107;13.578125
2.438905;13.578125
2.443793;13.625000
2.438905;13.625000
2.409580;13.625000
2.370479;13.687500
2.365591;13.687500
2.326491;13.687500
2.321603;13.703125
2.350929;13.703125
2.385142;13.703125
2.482893;13.703125
2.502444;13.734375
2.502444;13.734375
2.517107;13.734375
2.468231;13.734375
2.380254;13.765625
2.404692;13.765625
2.316716;13.765625
2.282502;13.765625
2.262952;13.765625
2.341153;13.765625
2.409580;13.765625
2.409580;13.781250
2.438905;13.781250
2.409580;13.781250
2.443793;13.781250
2.497556;13.781250
2.492669;13.781250
2.473118;13.796875
2.429130;13.796875
2.365591;13.796875
2.341153;13.796875
2.341153;13.796875
2.375367;13.796875
2.429130;13.796875
2.429130;13.796875
2.546432;13.812500
2.512219;13.812500
2.453568;13.812500
2.399804;13.859375
2.346041;13.859375
2.365591;13.859375
2.380254;13.859375
2.419355;13.859375
2.409580;13.859375
2.419355;13.859375
2.399804;13.859375
2.355816;13.875000
2.355816;13.875000
2.341153;13.875000
2.341153;13.875000
2.419355;13.890625
2.424242;13.890625
2.443793;13.890625
2.473118;13.937500
2.502444;13.937500
2.458456;13.937500
2.468231;13.937500
2.394917;13.953125
2.385142;13.953125
2.350929;13.953125
2.375367;14.000000
2.370479;14.000000
2.370479;14.000000
2.419355;14.000000
2.414467;14.015625
2.409580;14.015625
2.424242;14.015625
2.434018;14.015625
2.434018;14.015625
2.394917;14.031250
2.409580;14.031250
2.414467;14.031250
2.478006;14.031250
2.468231;14.062500
2.473118;14.062500
2.531769;14.062500
2.526882;14.062500
2.424242;14.062500
2.448680;14.109375
2.394917;14.109375
2.365591;14.109375
2.331378;14.109375
2.380254;14.109375
2.385142;14.156250
2.370479;14.156250
2.341153;14.156250
2.321603;14.156250
2.365591;14.171875
2.429130;14.171875
2.521994;14.171875
2.517107;14.218750
2.502444;14.218750
2.458456;14.218750
2.385142;14.218750
2.355816;14.218750
2.355816;14.218750
2.341153;14.218750
2.341153;14.218750
2.404692;14.234375
2.478006;14.234375
2.487781;14.234375
2.482893;14.281250
2.463343;14.281250
2.463343;14.281250
2.394917;14.281250
2.365591;14.296875
2.409580;14.296875
2.438905;14.296875
2.394917;14.343750
2.341153;14.343750
2.365591;14.343750
2.331378;14.343750
2.360704;14.359375
2.385142;14.359375
2.414467;14.359375
2.458456;14.375000
2.429130;14.375000
2.424242;14.375000
2.419355;14.390625
2.419355;14.390625
2.443793;14.390625
2.424242;14.390625
2.438905;14.406250
2.414467;14.406250
2.399804;14.406250
2.336266;14.453125
2.370479;14.453125
2.419355;14.453125
2.414467;14.453125
2.394917;14.453125
2.536657;14.453125
2.561095;14.453125
2.570870;14.500000
2.536657;14.500000
2.517107;14.500000
2.419355;14.500000
2.355816;14.515625
2.341153;14.515625
2.316716;14.515625
2.316716;14.562500
2.311828;14.562500
2.331378;14.562500
2.390029;14.562500
2.346041;14.562500
2.414467;14.562500
2.414467;14.562500
2.458456;14.578125
2.438905;14.578125
2.458456;14.578125
2.453568;14.578125
2.502444;14.609375
2.570870;14.609375
2.551320;14.609375
2.502444;14.609375
2.473118;14.625000
2.370479;14.625000
2.321603;14.625000
2.282502;14.640625
2.277615;14.640625
2.282502;14.640625
2.380254;14.640625
2.429130;14.671875
2.478006;14.671875
2.487781;14.671875
2.448680;14.687500
2.419355;14.687500
2.429130;14.687500
2.394917;14.687500
2.443793;14.734375
2.429130;14.734375
2.434018;14.734375
2.414467;14.734375
2.365591;14.750000
2.380254;14.750000
2.365591;14.750000
2.370479;14.812500
2.365591;14.812500
2.453568;14.812500
2.478006;14.812500
2.453568;14.828125
2.438905;14.828125
2.453568;14.828125
2.448680;14.859375
2.463343;14.859375
2.434018;14.859375
2.468231;14.859375
2.478006;14.906250
2.443793;14.906250
2.321603;14.906250
2.394917;14.921875
2.355816;14.921875
2.380254;14.921875
2.404692;14.921875
2.463343;14.921875
2.434018;14.921875
2.409580;14.921875
2.394917;14.937500
2.399804;14.937500
2.419355;14.937500
2.458456;14.937500
2.414467;14.968750
2.438905;14.968750
2.438905;14.968750
2.429130;14.968750
2.375367;14.984375
2.409580;14.984375
2.390029;14.984375
2.346041;14.984375
2.419355;14.984375
2.458456;14.984375
2.443793;15.000000
2.399804;15.000000
2.390029;15.000000
2.399804;15.000000
2.380254;15.046875
2.394917;15.046875
2.370479;15.046875
2.443793;15.046875
2.434018;15.062500
2.380254;15.062500
2.409580;15.062500
2.346041;15.109375
2.394917;15.109375
2.350929;15.109375
2.385142;15.109375
2.448680;15.109375
2.419355;15.109375
2.458456;15.109375
2.443793;15.125000
2.424242;15.125000
2.438905;15.125000
2.404692;15.125000
2.404692;15.140625
2.404692;15.140625
2.394917;15.140625
2.321603;15.140625
2.365591;15.156250
2.385142;15.156250
2.390029;15.156250
2.365591;15.156250
2.478006;15.156250
2.507331;15.156250
2.507331;15.171875
2.502444;15.171875
2.453568;15.171875
2.424242;15.171875
2.463343;15.218750
2.434018;15.218750
2.385142;15.218750
2.409580;15.218750
2.458456;15.234375
2.394917;15.234375
2.448680;15.234375
2.409580;15.250000
2.419355;15.250000
2.355816;15.250000
2.385142;15.265625
2.350929;15.265625
2.365591;15.265625
2.350929;15.265625
2.385142;15.281250
2.409580;15.281250
2.438905;15.281250
2.404692;15.328125
2.385142;15.328125
2.404692;15.328125
2.390029;15.328125
2.409580;15.343750
2.458456;15.343750
2.531769;15.343750
2.595308;15.390625
2.614858;15.390625
2.565982;15.390625
2.463343;15.406250
2.346041;15.406250
2.287390;15.406250
2.253177;15.406250
2.306940;15.406250
2.331378;15.406250
2.390029;15.406250
2.404692;15.421875
2.390029;15.421875
2.380254;15.421875
2.316716;15.421875
2.385142;15.468750
2.404692;15.468750
2.380254;15.468750
2.458456;15.515625
2.526882;15.515625
2.521994;15.515625
2.463343;15.515625
2.409580;15.531250
2.424242;15.531250
2.409580;15.531250
2.365591;15.578125
2.419355;15.578125
2.414467;15.578125
2.414467;15.578125
2.414467;15.578125
2.409580;15.578125
2.443793;15.578125
2.365591;15.593750
2.390029;15.593750
2.443793;15.593750
2.458456;15.593750
2.424242;15.640625
2.482893;15.640625
2.458456;15.640625
2.478006;15.640625
2.448680;15.640625
2.438905;15.640625
2.375367;15.640625
2.355816;15.656250
2.331378;15.656250
2.321603;15.656250
2.365591;15.656250
2.419355;15.656250
2.409580;15.656250
2.429130;15.656250
2.434018;15.656250
2.438905;15.671875
2.424242;15.671875
2.419355;15.671875
2.399804;15.671875
2.443793;15.671875
2.394917;15.671875
2.399804;15.718750
2.404692;15.718750
2.385142;15.718750
2.370479;15.765625
2.350929;15.765625
2.346041;15.765625
2.385142;15.781250
2.453568;15.781250
2.502444;15.781250
2.517107;15.781250
2.492669;15.828125
2.448680;15.828125
2.404692;15.828125
2.409580;15.828125
2.409580;15.843750
2.434018;15.843750
2.419355;15.843750
2.390029;15.890625
2.390029;15.890625
2.346041;15.890625
2.326491;15.890625
2.306940;15.906250
2.341153;15.906250
2.385142;15.906250
2.409580;15.953125
2.458456;15.953125
2.448680;15.953125
2.424242;15.953125
2.424242;15.984375
2.429130;15.984375
2.419355;15.984375
2.414467;15.984375
2.365591;16.000000
2.424242;16.000000
2.443793;16.000000
2.429130;16.000000
2.409580;16.000000
2.370479;16.000000
2.380254;16.015625
2.414467;16.015625
2.399804;16.015625
2.424242;16.015625
2.453568;16.015625
2.424242;16.015625
2.424242;16.015625
2.414467;16.031250
2.394917;16.031250
2.453568;16.031250
2.429130;16.031250
2.438905;16.031250
2.448680;16.031250
2.419355;16.031250
2.551320;16.031250
2.521994;16.046875
2.478006;16.046875
2.404692;16.046875
2.385142;16.093750
2.370479;16.093750
2.321603;16.093750
2.321603;16.093750
2.326491;16.093750
2.341153;16.093750
2.365591;16.093750
2.448680;16.140625
2.468231;16.140625
2.502444;16.140625
2.463343;16.140625
2.394917;16.156250
2.380254;16.156250
2.380254;16.156250
2.350929;16.203125
2.385142;16.203125
2.394917;16.203125
2.443793;16.203125
2.409580;16.218750
2.453568;16.218750
2.468231;16.218750
2.458456;16.265625
2.468231;16.265625
2.468231;16.265625
2.458456;16.265625
2.414467;16.265625
2.350929;16.265625
2.287390;16.265625
2.272727;16.281250
2.326491;16.281250
2.306940;16.281250
2.355816;16.281250
2.443793;16.328125
2.468231;16.328125
2.414467;16.328125
2.404692;16.328125
2.394917;16.343750
2.385142;16.343750
2.375367;16.343750
2.414467;16.390625
2.453568;16.390625
2.443793;16.390625
2.434018;16.406250
2.404692;16.406250
2.409580;16.406250
2.414467;16.406250
2.390029;16.406250
2.394917;16.406250
2.473118;16.406250
2.443793;16.406250
2.424242;16.421875
2.409580;16.421875
2.399804;16.421875
2.448680;16.421875
2.512219;16.421875
2.565982;16.421875
2.590420;16.437500
2.551320;16.437500
2.434018;16.437500
2.394917;16.437500
2.306940;16.484375
2.326491;16.484375
2.277615;16.484375
2.282502;16.484375
2.424242;16.500000
2.438905;16.500000
2.414467;16.500000
2.458456;16.546875
2.521994;16.546875
2.502444;16.546875
2.478006;16.546875
2.463343;16.546875
2.414467;16.546875
2.355816;16.546875
2.331378;16.546875
2.336266;16.562500
2.282502;16.562500
2.341153;16.562500
2.321603;16.578125
2.380254;16.578125
2.487781;16.578125
2.458456;16.625000
2.438905;16.625000
2.434018;16.625000
2.429130;16.625000
2.409580;16.671875
2.438905;16.671875
2.424242;16.671875
2.424242;16.687500
2.448680;16.687500
2.365591;16.687500
2.365591;16.687500
2.370479;16.734375
2.365591;16.734375
2.375367;16.734375
2.468231;16.734375
2.448680;16.750000
2.429130;16.750000
2.394917;16.750000
2.404692;16.796875
2.429130;16.796875
2.438905;16.796875
2.482893;16.796875
2.453568;16.796875
2.463343;16.796875
2.424242;16.796875
2.419355;16.812500
2.394917;16.812500
2.350929;16.812500
2.355816;16.812500
2.341153;16.828125
2.399804;16.828125
2.424242;16.828125
2.443793;16.875000
2.409580;16.875000
2.404692;16.875000
2.370479;16.875000
2.473118;16.890625
2.521994;16.890625
2.507331;16.890625
2.526882;16.937500
2.424242;16.937500
2.380254;16.937500
2.336266;16.937500
2.272727;16.953125
2.306940;16.953125
2.311828;16.953125
2.380254;17.000000
2.434018;17.000000
2.424242;17.000000
2.414467;17.000000
2.399804;17.031250
2.434018;17.031250
2.434018;17.031250
2.414467;17.046875
2.429130;17.046875
2.458456;17.046875
2.419355;17.046875
2.404692;17.093750
2.443793;17.093750
2.375367;17.093750
2.390029;17.093750
2.434018;17.109375
2.458456;17.109375
2.468231;17.109375
2.438905;17.156250
2.429130;17.156250
2.390029;17.156250
2.424242;17.156250
2.399804;17.156250
2.394917;17.156250
2.390029;17.156250
2.443793;17.171875
2.448680;17.171875
2.438905;17.171875
2.438905;17.171875
2.434018;17.218750
2.453568;17.218750
2.438905;17.218750
2.419355;17.218750
2.375367;17.234375
2.341153;17.234375
2.350929;17.234375
2.355816;17.281250
2.443793;17.281250
2.394917;17.281250
2.473118;17.281250
2.463343;17.296875
2.473118;17.296875
2.380254;17.296875
2.429130;17.343750
2.355816;17.343750
2.341153;17.343750
2.355816;17.343750
2.424242;17.343750
2.409580;17.343750
2.399804;17.343750
2.409580;17.375000
2.404692;17.375000
2.414467;17.375000
2.429130;17.375000
2.434018;17.390625
2.438905;17.390625
2.473118;17.390625
2.473118;17.406250
2.429130;17.406250
2.448680;17.406250
2.414467;17.406250
2.355816;17.453125
2.380254;17.453125
2.458456;17.453125
2.399804;17.453125
2.414467;17.484375
2.414467;17.484375
2.399804;17.484375
2.453568;17.531250
2.443793;17.531250
2.453568;17.531250
2.473118;17.531250
2.536657;17.546875
2.526882;17.546875
2.438905;17.546875
2.424242;17.593750
2.336266;17.593750
2.326491;17.593750
2.355816;17.593750
2.331378;17.609375
2.350929;17.609375
2.346041;17.609375
2.414467;17.656250
2.492669;17.656250
2.551320;17.656250
2.624633;17.656250
2.575758;17.671875
2.517107;17.671875
2.438905;17.671875
2.346041;17.718750
2.248289;17.718750
2.267840;17.718750
2.267840;17.718750
2.287390;17.734375
2.311828;17.734375
2.448680;17.734375
2.463343;17.781250
2.429130;17.781250
2.424242;17.781250
2.424242;17.796875
2.399804;17.796875
2.390029;17.796875
2.390029;17.796875
2.429130;17.843750
2.453568;17.843750
2.399804;17.843750
2.429130;17.843750
2.414467;17.859375
2.350929;17.859375
2.360704;17.859375
2.370479;17.859375
2.409580;17.859375
2.429130;17.859375
2.443793;17.859375
2.429130;17.875000
2.394917;17.875000
2.409580;17.875000
2.424242;17.921875
2.414467;17.921875
2.414467;17.921875
2.404692;17.921875
2.311828;17.953125
2.385142;17.953125
2.380254;17.953125
2.346041;18.000000
2.394917;18.000000
2.453568;18.000000
2.521994;18.000000
2.497556;18.000000
2.502444;18.000000
2.424242;18.000000
2.424242;18.046875
2.414467;18.046875
2.424242;18.046875
2.385142;18.046875
2.409580;18.062500
2.419355;18.062500
2.385142;18.062500
2.346041;18.078125
2.380254;18.078125
2.365591;18.078125
2.414467;18.078125
2.419355;18.093750
2.419355;18.093750
2.404692;18.093750
2.409580;18.140625
2.438905;18.140625
2.419355;18.140625
2.434018;18.140625
2.429130;18.140625
2.419355;18.140625
2.448680;18.140625
2.385142;18.140625
2.404692;18.156250
2.409580;18.156250
2.394917;18.156250
2.424242;18.203125
2.424242;18.203125
2.478006;18.203125
2.546432;18.203125
2.575758;18.218750
2.507331;18.218750
2.517107;18.218750
2.419355;18.265625
2.326491;18.265625
2.321603;18.265625
2.292278;18.265625
2.302053;18.281250
2.297165;18.281250
2.346041;18.281250
2.341153;18.328125
2.336266;18.328125
2.414467;18.328125
2.355816;18.328125
2.399804;18.343750
2.424242;18.343750
2.375367;18.343750
2.404692;18.343750
2.350929;18.359375
2.414467;18.359375
2.438905;18.359375
2.419355;18.359375
2.394917;18.359375
2.399804;18.359375
2.341153;18.390625
2.414467;18.390625
2.350929;18.390625
2.360704;18.390625
2.385142;18.437500
2.399804;18.437500
2.424242;18.437500
2.424242;18.437500
2.404692;18.453125
2.424242;18.453125
2.394917;18.453125
2.375367;18.500000
2.429130;18.500000
2.424242;18.500000
2.409580;18.515625
2.434018;18.515625
2.321603;18.515625
2.341153;18.515625
2.350929;18.515625
2.380254;18.515625
2.399804;18.515625
2.434018;18.531250
2.478006;18.531250
2.458456;18.531250
2.468231;18.531250
2.482893;18.531250
2.492669;18.531250
2.497556;18.531250
2.531769;18.546875
2.482893;18.546875
2.453568;18.546875
2.380254;18.546875
2.350929;18.546875
2.331378;18.546875
2.380254;18.546875
2.336266;18.562500
2.424242;18.562500
2.624633;18.562500
2.644184;18.562500
2.609971;18.562500
2.531769;18.562500
2.414467;18.562500
2.380254;18.578125
2.346041;18.578125
2.321603;18.578125
2.326491;18.578125
2.341153;18.625000
2.390029;18.625000
2.346041;18.625000
2.424242;18.625000
2.424242;18.640625
2.385142;18.640625
2.414467;18.640625
2.429130;18.671875
2.429130;18.671875
2.409580;18.671875
2.434018;18.671875
2.443793;18.671875
2.463343;18.671875
2.453568;18.671875
2.404692;18.718750
2.375367;18.718750
2.375367;18.718750
2.302053;18.718750
2.331378;18.734375
2.360704;18.734375
2.306940;18.734375
2.341153;18.750000
2.341153;18.750000
2.380254;18.750000
2.438905;18.750000
2.399804;18.750000
2.380254;18.750000
2.380254;18.750000
2.404692;18.781250
2.443793;18.781250
2.453568;18.781250
2.448680;18.781250
2.438905;18.781250
2.424242;18.781250
2.394917;18.781250
2.434018;18.781250
2.419355;18.796875
2.409580;18.796875
2.394917;18.796875
2.453568;18.812500
2.419355;18.812500
2.404692;18.812500
2.394917;18.812500
2.473118;18.843750
2.473118;18.843750
2.482893;18.843750
2.492669;18.843750
2.482893;18.859375
2.453568;18.859375
2.375367;18.859375
2.390029;18.859375
2.311828;18.890625
2.341153;18.890625
2.350929;18.890625
2.409580;18.890625
2.438905;18.890625
2.399804;18.906250
2.399804;18.906250
2.424242;18.906250
2.453568;18.906250
2.497556;18.921875
2.531769;18.921875
2.531769;18.921875
2.565982;18.937500
2.546432;18.937500
2.453568;18.937500
2.443793;18.984375
2.370479;18.984375
2.326491;18.984375
2.306940;18.984375
2.350929;19.031250
2.394917;19.031250
2.414467;19.031250
2.424242;19.031250
2.399804;19.046875
2.414467;19.046875
2.453568;19.046875
2.468231;19.093750
2.434018;19.093750
2.419355;19.093750
2.404692;19.125000
2.282502;19.125000
2.380254;19.125000
2.370479;19.125000
2.390029;19.140625
2.424242;19.187500
2.434018;19.187500
2.409580;19.187500
2.390029;19.203125
2.404692;19.203125
2.419355;19.203125
2.414467;19.203125
2.394917;19.203125
2.429130;19.203125
2.394917;19.203125
2.429130;19.203125
2.390029;19.218750
2.287390;19.218750
2.375367;19.218750
2.341153;19.234375
2.385142;19.234375
2.385142;19.234375
2.424242;19.281250
2.438905;19.281250
2.399804;19.281250
2.394917;19.281250
2.414467;19.296875
2.443793;19.296875
2.419355;19.296875
2.458456;19.343750
2.448680;19.343750
2.424242;19.343750
2.375367;19.343750
2.380254;19.343750
2.360704;19.343750
2.355816;19.343750
2.355816;19.375000
2.370479;19.375000
2.429130;19.375000
2.438905;19.375000
2.414467;19.375000
2.424242;19.375000
2.404692;19.375000
2.409580;19.421875
2.453568;19.421875
2.473118;19.421875
2.434018;19.421875
2.438905;19.437500
2.399804;19.437500
2.375367;19.437500
2.370479;19.484375
2.331378;19.484375
2.375367;19.484375
2.399804;19.484375
2.453568;19.515625
2.429130;19.515625
2.409580;19.515625
2.448680;19.515625
2.443793;19.546875
2.458456;19.546875
2.453568;19.546875
2.414467;19.546875
2.438905;19.578125
2.419355;19.578125
2.336266;19.578125
2.409580;19.625000
2.346041;19.625000
2.424242;19.625000
2.385142;19.625000
2.473118;19.640625
2.478006;19.640625
2.468231;19.640625
2.448680;19.687500
2.409580;19.687500
2.429130;19.687500
2.399804;19.687500
2.429130;19.703125
2.507331;19.703125
2.517107;19.703125
2.473118;19.765625
2.409580;19.765625
2.380254;19.765625
2.370479;19.765625
2.365591;19.781250
2.380254;19.781250
2.375367;19.781250
2.438905;19.812500
2.434018;19.812500
2.448680;19.812500
2.487781;19.812500
2.521994;19.828125
2.575758;19.828125
2.531769;19.828125
2.502444;19.875000
2.390029;19.875000
2.341153;19.875000
2.297165;19.875000
2.311828;19.890625
2.258065;19.890625
2.331378;19.890625
2.419355;19.906250
2.468231;19.906250
2.448680;19.906250
2.409580;19.921875
2.409580;19.921875
2.341153;19.921875
2.355816;19.921875
2.404692;19.937500
2.394917;19.937500
2.404692;19.937500
2.399804;19.968750
2.394917;19.968750
2.346041;19.968750
2.419355;19.968750
2.434018;19.968750
2.482893;19.968750
2.497556;19.968750
2.507331;20.015625
2.458456;20.015625
2.385142;20.015625
2.365591;20.015625
2.360704;20.015625
2.404692;20.015625
2.375367;20.015625
2.414467;20.031250
2.409580;20.031250
2.429130;20.031250
2.350929;20.031250
2.385142;20.031250
2.346041;20.031250
2.370479;20.031250
2.409580;20.031250
2.404692;20.046875
2.482893;20.046875
2.438905;20.046875
2.424242;20.078125
2.375367;20.078125
2.390029;20.078125
2.424242;20.093750
2.463343;20.093750
2.424242;20.093750
2.438905;20.093750
2.429130;20.125000
2.404692;20.125000
2.355816;20.125000
2.394917;20.140625
2.390029;20.140625
2.414467;20.140625
2.512219;20.140625
2.434018;20.140625
2.443793;20.156250
2.404692;20.156250
2.390029;20.156250
2.399804;20.203125
2.453568;20.203125
2.424242;20.203125
2.414467;20.203125
2.424242;20.203125
2.360704;20.203125
2.390029;20.203125
2.390029;20.250000
2.355816;20.250000
2.355816;20.250000
2.409580;20.250000
2.458456;20.265625
2.463343;20.265625
2.463343;20.265625
2.419355;20.281250
2.492669;20.281250
2.536657;20.281250
2.556207;20.281250
2.546432;20.328125
2.512219;20.328125
2.414467;20.328125
2.375367;20.328125
2.228739;20.343750
2.292278;20.343750
2.277615;20.343750
2.336266;20.390625
2.365591;20.390625
2.404692;20.390625
2.404692;20.390625
2.409580;20.406250
2.424242;20.406250
2.399804;20.406250
2.453568;20.421875
2.419355;20.421875
2.434018;20.421875
2.434018;20.421875
2.414467;20.437500
2.380254;20.437500
2.443793;20.437500
2.458456;20.453125
2.414467;20.453125
2.424242;20.453125
2.419355;20.500000
2.463343;20.500000
2.434018;20.500000
2.419355;20.500000
2.419355;20.531250
2.380254;20.531250
2.429130;20.531250
2.429130;20.531250
2.438905;20.531250
2.424242;20.562500
2.399804;20.562500
2.370479;20.562500
2.360704;20.562500
2.409580;20.562500
2.375367;20.578125
2.424242;20.578125
2.448680;20.578125
2.521994;20.578125
2.502444;20.578125
2.556207;20.593750
2.556207;20.593750
2.497556;20.593750
2.458456;20.593750
2.434018;20.625000
2.414467;20.625000
2.365591;20.625000
2.355816;20.625000
2.350929;20.625000
2.341153;20.656250
2.365591;20.656250
2.331378;20.656250
2.419355;20.656250
2.448680;20.656250
2.424242;20.687500
2.453568;20.687500
2.429130;20.687500
2.438905;20.687500
2.419355;20.703125
2.419355;20.703125
2.409580;20.703125
2.380254;20.703125
2.360704;20.703125
2.321603;20.718750
2.346041;20.718750
2.331378;20.718750
2.360704;20.718750
2.375367;20.718750
2.360704;20.718750
2.458456;20.718750
2.512219;20.718750
2.473118;20.734375
2.487781;20.734375
2.502444;20.734375
2.487781;20.781250
2.434018;20.781250
2.473118;20.781250
2.448680;20.781250
2.443793;20.796875
2.404692;20.796875
2.385142;20.796875
2.365591;20.843750
2.336266;20.843750
2.350929;20.843750
2.385142;20.843750
2.478006;20.859375
2.487781;20.859375
2.438905;20.859375
2.419355;20.906250
2.438905;20.906250
2.419355;20.906250
2.507331;20.906250
2.517107;20.937500
2.482893;20.937500
2.434018;20.937500
2.409580;20.968750
2.311828;20.968750
2.385142;20.968750
2.370479;20.968750
2.316716;20.968750
2.331378;20.968750
2.399804;20.968750
2.370479;20.968750
2.380254;20.984375
2.375367;20.984375
2.390029;20.984375
2.399804;21.031250
2.458456;21.031250
2.556207;21.031250
2.565982;21.031250
2.502444;21.046875
2.375367;21.046875
2.409580;21.046875
2.282502;21.093750
2.282502;21.093750
2.297165;21.093750
2.360704;21.093750
2.424242;21.093750
2.468231;21.093750
2.429130;21.093750
2.429130;21.093750
2.497556;21.109375
2.517107;21.109375
2.521994;21.109375
2.497556;21.109375
2.448680;21.125000
2.414467;21.125000
2.331378;21.125000
2.302053;21.125000
2.297165;21.125000
2.297165;21.125000
2.341153;21.140625
2.404692;21.140625
2.434018;21.140625
2.429130;21.140625
2.419355;21.140625
2.438905;21.140625
2.561095;21.140625
2.609971;21.156250
2.614858;21.156250
2.561095;21.156250
2.438905;21.203125
2.331378;21.203125
2.277615;21.203125
2.258065;21.203125
2.287390;21.218750
2.267840;21.218750
2.326491;21.218750
2.404692;21.265625
2.385142;21.265625
2.414467;21.265625
2.390029;21.265625
2.390029;21.265625
2.429130;21.265625
2.414467;21.265625
2.448680;21.312500
2.453568;21.312500
2.429130;21.312500
2.375367;21.312500
2.385142;21.328125
2.375367;21.328125
2.409580;21.328125
2.424242;21.375000
2.458456;21.375000
2.478006;21.375000
2.453568;21.421875
2.409580;21.421875
2.429130;21.421875
2.370479;21.421875
2.365591;21.437500
2.429130;21.437500
2.370479;21.437500
2.414467;21.468750
2.419355;21.468750
2.370479;21.468750
2.336266;21.468750
2.385142;21.484375
2.365591;21.484375
2.424242;21.484375
2.482893;21.531250
2.531769;21.531250
2.502444;21.531250
2.482893;21.531250
2.424242;21.546875
2.419355;21.546875
2.453568;21.546875
2.429130;21.593750
2.458456;21.593750
2.473118;21.593750
2.492669;21.593750
2.434018;21.609375
2.434018;21.609375
2.414467;21.609375
2.365591;21.656250
2.302053;21.656250
2.360704;21.656250
2.419355;21.656250
2.429130;21.671875
2.409580;21.671875
2.424242;21.671875
2.375367;21.718750
2.380254;21.718750
2.419355;21.718750
2.414467;21.718750
2.399804;21.734375
2.399804;21.734375
2.292278;21.734375
2.365591;21.781250
2.385142;21.781250
2.350929;21.781250
2.380254;21.781250
2.424242;21.828125
2.409580;21.828125
2.409580;21.828125
2.419355;21.875000
2.419355;21.875000
2.419355;21.875000
2.390029;21.875000
2.414467;21.890625
2.453568;21.890625
2.419355;21.890625
2.385142;21.890625
2.321603;21.921875
2.399804;21.921875
2.404692;21.921875
2.414467;21.937500
2.419355;21.937500
2.443793;21.937500
2.468231;21.937500
2.414467;21.953125
2.409580;21.953125
2.390029;21.953125
2.438905;22.000000
2.404692;22.000000
2.448680;22.000000
2.429130;22.000000
2.419355;22.015625
2.394917;22.015625
2.385142;22.015625
2.375367;22.062500
2.385142;22.062500
2.390029;22.062500
2.424242;22.078125
2.453568;22.078125
2.458456;22.078125
2.434018;22.078125
2.438905;22.078125
2.390029;22.078125
2.453568;22.078125
2.434018;22.093750
2.453568;22.093750
2.424242;22.093750
2.443793;22.109375
2.385142;22.109375
2.409580;22.109375
2.346041;22.156250
2.365591;22.156250
2.380254;22.156250
2.424242;22.156250
2.487781;22.171875
2.473118;22.171875
2.468231;22.171875
2.458456;22.203125
2.434018;22.203125
2.443793;22.203125
2.473118;22.203125
2.448680;22.250000
2.438905;22.250000
2.414467;22.250000
2.341153;22.250000
2.394917;22.265625
2.341153;22.265625
2.341153;22.265625
2.385142;22.312500
2.434018;22.312500
2.482893;22.312500
2.463343;22.312500
2.429130;22.328125
2.419355;22.328125
2.409580;22.328125
2.399804;22.375000
2.394917;22.375000
2.409580;22.375000
2.429130;22.375000
2.419355;22.375000
2.390029;22.375000
2.414467;22.375000
2.380254;22.375000
2.350929;22.390625
2.419355;22.390625
2.492669;22.390625
2.507331;22.390625
2.482893;22.390625
2.482893;22.390625
2.443793;22.437500
2.482893;22.437500
2.487781;22.437500
2.453568;22.437500
2.434018;22.453125
2.380254;22.453125
2.365591;22.453125
2.380254;22.500000
2.385142;22.500000
2.350929;22.500000
2.350929;22.500000
2.419355;22.515625
2.575758;22.515625
2.585533;22.515625
2.526882;22.531250
2.453568;22.531250
2.380254;22.531250
2.370479;22.531250
2.409580;22.546875
2.404692;22.546875
2.424242;22.546875
2.394917;22.546875
2.404692;22.562500
2.478006;22.562500
2.536657;22.562500
2.502444;22.609375
2.453568;22.609375
2.438905;22.609375
2.385142;22.609375
2.316716;22.609375
2.287390;22.609375
2.287390;22.609375
2.258065;22.625000
2.336266;22.625000
2.365591;22.625000
2.380254;22.625000
2.419355;22.625000
2.399804;22.625000
2.346041;22.625000
2.370479;22.640625
2.385142;22.640625
2.380254;22.640625
2.404692;22.640625
2.419355;22.640625
2.463343;22.640625
2.448680;22.640625
2.404692;22.656250
2.385142;22.656250
2.419355;22.656250
2.424242;22.656250
2.468231;22.656250
2.536657;22.656250
2.541544;22.656250
2.526882;22.656250
2.429130;22.671875
2.448680;22.671875
2.380254;22.671875
2.302053;22.671875
2.316716;22.671875
2.394917;22.671875
2.478006;22.718750
2.492669;22.718750
2.458456;22.718750
2.424242;22.718750
2.365591;22.718750
2.370479;22.718750
2.380254;22.718750
2.385142;22.718750
2.424242;22.750000
2.399804;22.750000
2.331378;22.750000
2.385142;22.765625
2.346041;22.765625
2.316716;22.765625
2.341153;22.781250
2.414467;22.781250
2.419355;22.781250
2.429130;22.781250
2.434018;22.796875
2.404692;22.796875
2.507331;22.796875
2.585533;22.812500
2.688172;22.812500
2.614858;22.812500
2.541544;22.812500
2.438905;22.843750
2.287390;22.843750
2.262952;22.843750
2.214076;22.843750
2.287390;22.843750
2.272727;22.843750
2.390029;22.843750
2.424242;22.859375
2.414467;22.859375
2.404692;22.859375
2.380254;22.875000
2.409580;22.875000
2.385142;22.875000
2.424242;22.875000
2.409580;22.875000
2.409580;22.875000
2.385142;22.875000
2.355816;22.875000
2.385142;22.890625
2.360704;22.890625
2.365591;22.890625
2.365591;22.890625
2.429130;22.890625
2.438905;22.890625
2.414467;22.906250
2.438905;22.906250
2.463343;22.906250
2.429130;22.906250
2.458456;22.953125
2.458456;22.953125
2.424242;22.953125
2.409580;22.953125
2.385142;22.953125
2.394917;22.953125
2.355816;22.953125
2.375367;22.968750
2.404692;22.968750
2.438905;22.968750
2.438905;22.968750
2.448680;22.984375
2.409580;22.984375
2.399804;22.984375
2.434018;22.984375
2.448680;23.000000
2.399804;23.000000
2.419355;23.000000
2.424242;23.046875
2.438905;23.046875
2.380254;23.046875
2.390029;23.046875
2.424242;23.062500
2.438905;23.062500
2.590420;23.062500
2.639296;23.109375
2.649071;23.109375
2.551320;23.109375
2.468231;23.125000
2.341153;23.125000
2.331378;23.125000
2.326491;23.125000
2.375367;23.125000
2.424242;23.125000
2.453568;23.203125
2.429130;23.203125
2.438905;23.203125
2.424242;23.218750
2.448680;23.218750
2.438905;23.218750
2.409580;23.218750
2.448680;23.218750
2.394917;23.218750
2.360704;23.218750
2.297165;23.218750
2.297165;23.234375
2.282502;23.234375
2.316716;23.234375
2.385142;23.281250
2.473118;23.281250
2.468231;23.281250
2.414467;23.328125
2.370479;23.328125
2.365591;23.328125
2.336266;23.328125
2.306940;23.343750
2.355816;23.343750
2.385142;23.343750
2.424242;23.390625
2.399804;23.390625
2.399804;23.390625
2.414467;23.406250
2.414467;23.406250
2.385142;23.406250
2.399804;23.406250
2.424242;23.406250
2.414467;23.406250
2.380254;23.406250
2.346041;23.406250
2.365591;23.406250
2.355816;23.437500
2.375367;23.437500
2.434018;23.437500
2.438905;23.437500
2.438905;23.437500
2.424242;23.453125
2.414467;23.453125
2.424242;23.453125
2.394917;23.453125
2.453568;23.468750
2.443793;23.468750
2.424242;23.468750
2.438905;23.468750
2.380254;23.484375
2.380254;23.484375
2.390029;23.484375
2.355816;23.484375
2.399804;23.484375
2.414467;23.484375
2.458456;23.515625
2.434018;23.515625
2.434018;23.515625
2.404692;23.515625
2.385142;23.515625
2.390029;23.515625
2.419355;23.515625
2.438905;23.562500
2.448680;23.562500
2.399804;23.562500
2.321603;23.562500
2.380254;23.609375
2.404692;23.609375
2.390029;23.609375
2.375367;23.625000
2.468231;23.625000
2.512219;23.625000
2.478006;23.625000
2.492669;23.671875
2.478006;23.671875
2.463343;23.671875
2.482893;23.671875
2.468231;23.703125
2.429130;23.703125
2.404692;23.703125
2.390029;23.750000
2.360704;23.750000
2.341153;23.750000
2.399804;23.765625
2.385142;23.765625
2.414467;23.765625
2.443793;23.765625
2.468231;23.781250
2.473118;23.781250
2.468231;23.781250
2.429130;23.828125
2.443793;23.828125
2.463343;23.828125
2.424242;23.828125
2.482893;23.828125
2.502444;23.828125
2.458456;23.828125
2.434018;23.828125
2.355816;23.828125
2.355816;23.859375
2.331378;23.859375
2.370479;23.859375
2.385142;23.859375
2.419355;23.859375
2.390029;23.875000
2.380254;23.875000
2.434018;23.875000
2.375367;23.875000
2.429130;23.906250
2.414467;23.906250
2.394917;23.906250
2.399804;23.906250
2.370479;23.906250
2.380254;23.921875
2.326491;23.921875
2.316716;23.921875
2.346041;23.921875
2.394917;23.953125
2.463343;23.953125
2.448680;23.953125
2.419355;23.953125
2.419355;23.953125
2.434018;23.953125
2.429130;23.953125
2.438905;23.953125
2.419355;23.953125
2.429130;23.968750
2.409580;23.968750
2.380254;23.968750
2.370479;23.968750
0.444770;24.031250
2.404692;24.031250
2.482893;24.031250
2.453568;24.078125
2.463343;24.078125
2.404692;24.078125
2.360704;24.078125
2.355816;24.093750
2.346041;24.093750
2.375367;24.093750
2.385142;24.140625
2.394917;24.140625
2.453568;24.140625
2.443793;24.140625
2.438905;24.156250
2.399804;24.156250
2.409580;24.156250
2.355816;24.156250
2.360704;24.156250
2.380254;24.156250
2.390029;24.156250
2.473118;24.171875
2.463343;24.171875
2.473118;24.171875
2.390029;24.171875
0.024438;24.218750
2.399804;24.218750
2.404692;24.218750
2.482893;24.218750
2.453568;24.218750
2.463343;24.218750
2.404692;24.218750
2.360704;24.218750
2.355816;24.234375
2.346041;24.234375
2.375367;24.234375
2.385142;24.250000
2.394917;24.250000
2.453568;24.250000
2.443793;24.250000
2.438905;24.250000
2.399804;24.250000
2.409580;24.250000
2.355816;24.265625
2.360704;24.265625
2.380254;24.265625
2.390029;24.265625
2.473118;24.265625
2.463343;24.265625
2.473118;24.265625
2.390029;24.281250
2.350929;24.281250
2.326491;24.281250
2.390029;24.281250
2.341153;24.328125
2.419355;24.328125
2.419355;24.328125
2.453568;24.343750
2.429130;24.343750
2.375367;24.343750
2.355816;24.343750
2.346041;24.343750
2.321603;24.343750
2.370479;24.343750
2.419355;24.343750
2.424242;24.343750
2.434018;24.343750
2.468231;24.343750
2.487781;24.359375
2.438905;24.359375
2.487781;24.359375
2.468231;24.359375
2.448680;24.375000
2.434018;24.375000
2.424242;24.375000
2.497556;24.406250
2.487781;24.406250
2.517107;24.406250
2.478006;24.406250
2.468231;24.453125
2.478006;24.453125
2.526882;24.453125
2.492669;24.468750
2.468231;24.468750
2.419355;24.468750
2.346041;24.468750
2.350929;24.468750
2.306940;24.468750
2.316716;24.468750
2.297165;24.468750
2.311828;24.484375
2.272727;24.484375
2.385142;24.484375
2.473118;24.531250
2.541544;24.531250
2.521994;24.531250
2.478006;24.531250
2.414467;24.578125
2.355816;24.578125
2.365591;24.578125
2.448680;24.578125
2.526882;24.578125
2.517107;24.578125
2.482893;24.578125
2.409580;24.625000
2.321603;24.625000
2.243402;24.625000
2.253177;24.625000
2.267840;24.640625
2.267840;24.640625
2.331378;24.640625
2.385142;24.656250
2.414467;24.656250
2.443793;24.656250
2.390029;24.656250
2.390029;24.656250
2.404692;24.656250
2.438905;24.656250
2.448680;24.671875
2.468231;24.671875
2.458456;24.671875
2.561095;24.687500
2.595308;24.687500
2.517107;24.687500
2.473118;24.734375
2.360704;24.734375
2.341153;24.734375
2.326491;24.734375
2.316716;24.750000
2.316716;24.750000
2.341153;24.750000
2.385142;24.796875
2.404692;24.796875
2.394917;24.796875
2.424242;24.796875
2.409580;24.796875
2.404692;24.796875
2.399804;24.796875
2.316716;24.843750
2.512219;24.843750
2.531769;24.843750
2.585533;24.843750
2.541544;24.859375
2.541544;24.859375
2.448680;24.859375
2.375367;24.906250
2.409580;24.906250
2.380254;24.906250
2.360704;24.906250
2.375367;24.906250
2.380254;24.906250
2.394917;24.906250
2.497556;24.953125
2.546432;24.953125
2.678397;24.953125
2.668622;24.953125
2.580645;24.968750
2.404692;24.968750
2.341153;24.968750
2.302053;25.015625
2.253177;25.015625
2.233627;25.015625
2.282502;25.015625
2.390029;25.031250
2.434018;25.031250
2.443793;25.031250
2.424242;25.078125
2.390029;25.078125
2.375367;25.078125
2.272727;25.078125
2.321603;25.093750
2.306940;25.093750
2.302053;25.093750
2.350929;25.093750
2.414467;25.109375
2.492669;25.109375
2.482893;25.109375
2.448680;25.109375
2.409580;25.109375
2.419355;25.109375
2.409580;25.156250
2.394917;25.156250
2.409580;25.156250
2.404692;25.156250
2.409580;25.171875
2.385142;25.171875
2.394917;25.171875
2.443793;25.218750
2.487781;25.218750
2.458456;25.218750
2.502444;25.218750
2.492669;25.265625
2.473118;25.265625
2.443793;25.265625
2.409580;25.265625
2.404692;25.281250
2.399804;25.281250
2.478006;25.281250
2.487781;25.296875
2.517107;25.296875
2.512219;25.296875
2.443793;25.296875
2.419355;25.312500
2.375367;25.312500
2.350929;25.312500
2.316716;25.328125
2.385142;25.328125
2.404692;25.328125
2.434018;25.328125
2.497556;25.343750
2.526882;25.343750
2.521994;25.343750
2.521994;25.390625
2.497556;25.390625
2.487781;25.390625
2.468231;25.390625
2.453568;25.390625
2.336266;25.390625
2.336266;25.390625
2.306940;25.437500
2.321603;25.437500
2.380254;25.437500
2.419355;25.437500
2.448680;25.453125
2.453568;25.453125
2.443793;25.453125
2.385142;25.500000
2.360704;25.500000
2.385142;25.500000
2.419355;25.500000
2.448680;25.515625
2.419355;25.515625
2.424242;25.515625
2.399804;25.531250
2.414467;25.531250
2.370479;25.531250
2.370479;25.531250
2.424242;25.578125
2.565982;25.578125
2.561095;25.578125
2.531769;25.578125
2.531769;25.593750
2.487781;25.593750
2.536657;25.593750
2.463343;25.640625
2.414467;25.640625
2.424242;25.640625
2.487781;25.640625
2.463343;25.656250
2.453568;25.656250
2.434018;25.656250
2.380254;25.671875
2.409580;25.671875
2.424242;25.671875
2.424242;25.671875
2.438905;25.671875
2.429130;25.671875
2.365591;25.671875
2.311828;25.687500
2.326491;25.687500
2.443793;25.687500
2.521994;25.687500
2.492669;25.687500
2.409580;25.687500
2.287390;25.687500
2.302053;25.718750
2.262952;25.718750
2.233627;25.718750
2.292278;25.718750
2.429130;25.734375
2.526882;25.734375
2.497556;25.734375
2.512219;25.781250
2.492669;25.781250
2.434018;25.781250
2.424242;25.781250
2.390029;25.796875
2.370479;25.796875
2.390029;25.796875
2.380254;25.843750
2.365591;25.843750
2.350929;25.843750
2.409580;25.843750
2.346041;25.859375
2.399804;25.859375
2.463343;25.859375
2.507331;25.859375
2.590420;25.859375
2.585533;25.859375
2.546432;25.859375
2.502444;25.875000
2.394917;25.875000
2.365591;25.875000
2.331378;25.921875
2.375367;25.921875
2.380254;25.921875
2.404692;25.921875
2.419355;25.937500
2.375367;25.937500
2.336266;25.937500
2.350929;25.953125
2.346041;25.953125
2.360704;25.953125
2.360704;25.953125
2.438905;25.953125
2.482893;25.953125
2.551320;25.953125
2.629521;25.984375
2.561095;25.984375
2.653959;25.984375
2.585533;25.984375
2.404692;26.000000
2.302053;26.000000
2.287390;26.000000
2.302053;26.046875
2.336266;26.046875
2.380254;26.046875
2.370479;26.062500
2.375367;26.062500
2.326491;26.062500
2.267840;26.062500
2.302053;26.109375
2.331378;26.109375
2.419355;26.109375
2.438905;26.109375
2.424242;26.125000
2.419355;26.125000
2.370479;26.125000
2.321603;26.171875
2.370479;26.171875
2.316716;26.171875
2.346041;26.171875
2.399804;26.187500
2.458456;26.187500
2.429130;26.187500
2.473118;26.234375
2.512219;26.234375
2.575758;26.234375
2.619746;26.234375
2.619746;26.250000
2.580645;26.250000
2.458456;26.250000
2.390029;26.250000
2.297165;26.265625
2.287390;26.265625
2.272727;26.265625
2.341153;26.265625
2.409580;26.281250
2.414467;26.281250
2.394917;26.281250
2.370479;26.296875
2.306940;26.296875
2.297165;26.296875
2.326491;26.343750
2.350929;26.343750
2.385142;26.343750
2.453568;26.343750
2.409580;26.359375
2.399804;26.359375
2.326491;26.359375
2.438905;26.390625
2.482893;26.390625
2.458456;26.390625
2.434018;26.390625
2.487781;26.390625
2.448680;26.390625
2.404692;26.390625
2.375367;26.390625
2.370479;26.406250
2.404692;26.406250
2.448680;26.406250
2.546432;26.453125
2.580645;26.453125
2.546432;26.453125
2.463343;26.468750
2.341153;26.468750
2.277615;26.468750
2.302053;26.468750
2.380254;26.515625
2.414467;26.515625
2.531769;26.515625
2.551320;26.515625
2.551320;26.531250
2.521994;26.531250
2.429130;26.531250
2.390029;26.562500
2.341153;26.562500
2.306940;26.562500
2.311828;26.562500
2.321603;26.578125
2.341153;26.578125
2.404692;26.578125
2.453568;26.578125
2.443793;26.593750
2.478006;26.593750
2.438905;26.593750
2.434018;26.625000
2.424242;26.625000
2.419355;26.625000
2.458456;26.625000
2.478006;26.640625
2.561095;26.640625
2.526882;26.640625
2.443793;26.687500
2.394917;26.687500
2.360704;26.687500
2.311828;26.687500
2.282502;26.703125
2.336266;26.703125
2.360704;26.703125
2.507331;26.750000
2.580645;26.750000
2.536657;26.750000
2.429130;26.750000
2.331378;26.765625
2.287390;26.765625
2.253177;26.765625
2.253177;26.781250
2.321603;26.781250
2.380254;26.781250
2.365591;26.781250
2.429130;26.828125
2.429130;26.828125
2.434018;26.828125
2.394917;26.828125
2.380254;26.843750
2.355816;26.843750
2.394917;26.843750
2.404692;26.890625
2.390029;26.890625
2.429130;26.890625
2.531769;26.906250
2.565982;26.906250
2.639296;26.906250
2.800587;26.906250
2.776149;26.953125
2.624633;26.953125
2.394917;26.953125
2.145650;26.953125
2.223851;26.953125
2.218964;26.953125
2.272727;26.953125
2.248289;26.953125
2.399804;26.968750
2.507331;26.968750
2.502444;26.968750
2.409580;27.015625
2.365591;27.015625
2.331378;27.015625
2.385142;27.015625
2.375367;27.031250
2.429130;27.031250
2.434018;27.031250
2.394917;27.078125
2.326491;27.078125
2.316716;27.078125
2.287390;27.093750
2.277615;27.093750
2.311828;27.093750
2.375367;27.093750
2.438905;27.109375
2.429130;27.109375
2.341153;27.109375
2.429130;27.125000
2.385142;27.125000
2.434018;27.125000
2.394917;27.125000
2.399804;27.140625
2.404692;27.140625
2.424242;27.140625
2.414467;27.140625
2.453568;27.171875
2.473118;27.171875
2.443793;27.171875
2.478006;27.171875
2.473118;27.171875
2.424242;27.187500
2.331378;27.187500
2.434018;27.187500
2.434018;27.187500
2.463343;27.187500
2.492669;27.218750
2.453568;27.218750
2.390029;27.218750
2.346041;27.218750
2.302053;27.218750
2.262952;27.250000
2.311828;27.250000
2.394917;27.250000
2.434018;27.250000
2.463343;27.250000
2.492669;27.265625
2.478006;27.265625
2.424242;27.265625
2.434018;27.265625
2.394917;27.296875
2.350929;27.296875
2.380254;27.296875
2.380254;27.296875
2.370479;27.296875
2.370479;27.296875
2.380254;27.296875
2.409580;27.296875
2.375367;27.296875
2.399804;27.296875
2.419355;27.312500
2.482893;27.312500
2.448680;27.312500
2.443793;27.312500
2.404692;27.312500
2.399804;27.343750
2.380254;27.343750
2.370479;27.343750
2.424242;27.343750
2.517107;27.343750
2.561095;27.359375
2.517107;27.359375
2.419355;27.359375
2.443793;27.359375
2.438905;27.359375
2.453568;27.375000
2.429130;27.375000
2.370479;27.375000
2.350929;27.375000
2.287390;27.406250
2.277615;27.406250
2.311828;27.406250
2.326491;27.406250
2.463343;27.406250
2.463343;27.437500
2.473118;27.437500
2.414467;27.437500
2.370479;27.437500
2.350929;27.437500
2.321603;27.468750
2.360704;27.468750
2.409580;27.468750
2.448680;27.468750
2.414467;27.468750
2.429130;27.484375
2.370479;27.484375
2.282502;27.484375
2.404692;27.531250
2.355816;27.531250
2.448680;27.531250
2.438905;27.531250
2.468231;27.546875
2.482893;27.546875
2.468231;27.546875
2.429130;27.562500
2.424242;27.562500
2.390029;27.562500
2.350929;27.562500
2.385142;27.609375
2.473118;27.609375
2.487781;27.609375
2.468231;27.609375
2.346041;27.625000
2.429130;27.625000
2.360704;27.625000
2.370479;27.640625
2.336266;27.640625
2.341153;27.640625
2.380254;27.687500
2.414467;27.687500
2.434018;27.687500
2.502444;27.687500
2.443793;27.687500
2.448680;27.687500
2.419355;27.687500
2.360704;27.703125
2.326491;27.703125
2.360704;27.703125
2.409580;27.703125
2.365591;27.703125
2.438905;27.703125
2.517107;27.703125
2.492669;27.718750
2.507331;27.718750
2.448680;27.718750
2.448680;27.718750
2.468231;27.765625
2.463343;27.765625
2.385142;27.765625
2.331378;27.765625
2.350929;27.781250
2.346041;27.781250
2.336266;27.781250
2.302053;27.781250
2.316716;27.781250
2.385142;27.781250
2.399804;27.781250
2.443793;27.796875
2.517107;27.796875
2.507331;27.812500
2.468231;27.812500
2.419355;27.812500
2.414467;27.812500
2.380254;27.843750
2.365591;27.843750
2.336266;27.843750
2.399804;27.890625
2.429130;27.890625
2.365591;27.890625
2.355816;27.890625
2.404692;27.890625
2.306940;27.890625
2.360704;27.890625
2.443793;27.937500
2.399804;27.937500
2.463343;27.937500
2.443793;27.937500
2.409580;27.937500
2.399804;27.937500
2.424242;27.937500
2.399804;27.984375
2.419355;27.984375
2.497556;27.984375
2.517107;27.984375
2.492669;28.000000
2.526882;28.000000
2.453568;28.000000
2.394917;28.015625
2.390029;28.015625
2.394917;28.015625
2.385142;28.015625
2.365591;28.046875
2.346041;28.046875
2.326491;28.046875
2.365591;28.046875
2.453568;28.062500
2.526882;28.062500
2.590420;28.062500
2.580645;28.078125
2.473118;28.078125
2.375367;28.078125
2.399804;28.078125
2.365591;28.125000
2.346041;28.125000
2.526882;28.125000
2.605083;28.140625
2.663734;28.140625
2.600196;28.140625
2.463343;28.140625
2.302053;28.140625
2.228739;28.140625
2.179863;28.140625
2.214076;28.140625
2.297165;28.156250
2.394917;28.156250
2.453568;28.156250
2.492669;28.203125
2.463343;28.203125
2.390029;28.203125
2.434018;28.203125
2.487781;28.218750
2.434018;28.218750
2.390029;28.218750
2.360704;28.265625
2.306940;28.265625
2.297165;28.265625
2.355816;28.265625
2.360704;28.265625
2.385142;28.265625
2.419355;28.265625
2.424242;28.312500
2.414467;28.312500
2.419355;28.312500
2.375367;28.312500
2.438905;28.312500
2.438905;28.312500
2.468231;28.312500
2.492669;28.328125
2.487781;28.328125
2.458456;28.328125
2.624633;28.328125
2.795699;28.328125
2.795699;28.328125
2.707722;28.328125
2.492669;28.375000
2.331378;28.375000
2.218964;28.375000
2.140762;28.375000
2.126100;28.375000
2.184751;28.375000
2.341153;28.375000
2.404692;28.375000
2.429130;28.375000
2.424242;28.375000
2.434018;28.375000
2.399804;28.375000
2.350929;28.390625
2.350929;28.390625
2.360704;28.390625
2.404692;28.437500
2.414467;28.437500
2.429130;28.437500
2.463343;28.437500
2.434018;28.453125
2.414467;28.453125
2.458456;28.453125
2.492669;28.500000
2.580645;28.500000
2.658847;28.500000
2.634409;28.515625
2.585533;28.515625
2.458456;28.515625
2.326491;28.515625
2.228739;28.515625
2.218964;28.515625
2.228739;28.515625
2.321603;28.562500
2.346041;28.562500
2.409580;28.562500
2.438905;28.562500
2.404692;28.562500
2.448680;28.562500
2.463343;28.562500
2.492669;28.578125
2.492669;28.578125
2.473118;28.578125
2.468231;28.578125
2.453568;28.609375
2.468231;28.609375
2.448680;28.609375
2.458456;28.609375
2.429130;28.625000
2.390029;28.625000
2.346041;28.625000
2.297165;28.656250
2.321603;28.656250
2.399804;28.656250
2.463343;28.656250
2.448680;28.671875
2.521994;28.671875
2.639296;28.671875
2.653959;28.718750
2.541544;28.718750
2.404692;28.718750
2.306940;28.718750
2.272727;28.734375
2.223851;28.734375
2.223851;28.734375
2.297165;28.765625
2.419355;28.765625
2.429130;28.765625
2.409580;28.765625
2.526882;28.781250
2.482893;28.781250
2.531769;28.781250
2.468231;28.828125
2.424242;28.828125
2.375367;28.828125
2.404692;28.828125
2.385142;28.828125
2.404692;28.828125
2.434018;28.828125
2.429130;28.828125
2.419355;28.859375
2.390029;28.859375
2.390029;28.859375
2.346041;28.859375
2.404692;28.859375
2.639296;28.859375
2.683284;28.859375
2.688172;28.875000
2.609971;28.875000
2.487781;28.875000
2.326491;28.906250
2.228739;28.906250
2.150538;28.906250
2.140762;28.921875
2.253177;28.921875
2.336266;28.921875
2.346041;28.921875
2.434018;28.968750
2.424242;28.968750
2.414467;28.968750
2.453568;28.984375
2.580645;28.984375
2.649071;28.984375
2.668622;28.984375
2.595308;29.031250
2.478006;29.031250
2.385142;29.031250
2.272727;29.031250
2.218964;29.031250
2.218964;29.031250
2.253177;29.031250
2.272727;29.046875
2.380254;29.046875
2.399804;29.046875
2.419355;29.046875
2.414467;29.062500
2.473118;29.062500
2.404692;29.062500
2.365591;29.093750
2.448680;29.093750
2.424242;29.093750
2.424242;29.093750
2.443793;29.109375
2.478006;29.109375
2.443793;29.109375
2.438905;29.156250
2.448680;29.156250
2.453568;29.156250
2.463343;29.156250
2.404692;29.171875
2.370479;29.171875
2.336266;29.171875
2.331378;29.218750
2.311828;29.218750
2.346041;29.218750
2.390029;29.218750
2.438905;29.234375
2.487781;29.234375
2.458456;29.234375
2.424242;29.281250
2.414467;29.281250
2.385142;29.281250
2.404692;29.281250
2.399804;29.296875
2.482893;29.296875
2.507331;29.296875
2.473118;29.343750
2.438905;29.343750
2.473118;29.343750
2.390029;29.343750
2.458456;29.343750
2.551320;29.343750
2.521994;29.343750
2.482893;29.390625
2.409580;29.390625
2.365591;29.390625
2.370479;29.390625
2.365591;29.390625
2.394917;29.390625
2.414467;29.390625
2.434018;29.390625
2.438905;29.406250
2.478006;29.406250
2.468231;29.406250
2.463343;29.437500
2.429130;29.437500
2.394917;29.437500
2.390029;29.453125
2.424242;29.453125
2.399804;29.453125
2.404692;29.453125
2.404692;29.500000
2.424242;29.500000
2.380254;29.500000
2.336266;29.500000
2.380254;29.500000
2.365591;29.500000
2.360704;29.500000
2.390029;29.500000
2.321603;29.515625
2.394917;29.515625
2.385142;29.515625
2.409580;29.562500
2.370479;29.562500
2.434018;29.562500
2.458456;29.562500
2.482893;29.578125
2.551320;29.578125
2.561095;29.578125
2.521994;29.625000
2.424242;29.625000
2.409580;29.625000
2.380254;29.625000
2.360704;29.640625
2.350929;29.640625
2.375367;29.640625
2.434018;29.640625
2.414467;29.656250
2.394917;29.656250
2.443793;29.656250
2.478006;29.671875
2.438905;29.671875
2.370479;29.671875
2.355816;29.718750
2.414467;29.718750
2.394917;29.718750
2.360704;29.718750
2.434018;29.734375
2.429130;29.734375
2.526882;29.734375
2.609971;29.750000
2.707722;29.750000
2.570870;29.750000
2.482893;29.750000
2.360704;29.796875
2.233627;29.796875
2.262952;29.796875
2.228739;29.796875
2.248289;29.828125
2.336266;29.828125
2.399804;29.828125
2.341153;29.875000
2.429130;29.875000
2.438905;29.875000
2.438905;29.875000
2.443793;29.890625
2.394917;29.890625
2.434018;29.890625
2.429130;29.937500
2.419355;29.937500
2.482893;29.937500
2.429130;29.937500
2.453568;29.937500
2.448680;29.937500
2.380254;29.937500
2.350929;29.937500
2.355816;29.968750
2.272727;29.968750
2.331378;29.968750
2.355816;30.015625
2.370479;30.015625
2.404692;30.015625
2.370479;30.015625
2.370479;30.031250
2.419355;30.031250
2.478006;30.031250
2.443793;30.078125
2.443793;30.078125
2.448680;30.078125
2.390029;30.078125
2.350929;30.078125
2.326491;30.078125
2.380254;30.078125
2.346041;30.078125
2.385142;30.109375
2.429130;30.109375
2.448680;30.109375
2.414467;30.109375
2.448680;30.109375
2.458456;30.109375
2.507331;30.109375
2.580645;30.140625
2.619746;30.140625
2.556207;30.140625
2.458456;30.156250
2.365591;30.156250
2.272727;30.156250
2.258065;30.171875
2.277615;30.171875
2.292278;30.171875
2.443793;30.171875
2.609971;30.218750
2.590420;30.218750
2.507331;30.218750
2.512219;30.218750
2.399804;30.234375
2.321603;30.234375
2.302053;30.234375
2.350929;30.281250
2.492669;30.281250
2.546432;30.281250
2.473118;30.281250
2.394917;30.281250
2.350929;30.281250
2.277615;30.281250
2.287390;30.312500
2.350929;30.312500
2.414467;30.312500
2.429130;30.312500
2.365591;30.328125
2.473118;30.328125
2.404692;30.328125
2.419355;30.328125
2.453568;30.328125
2.473118;30.328125
2.438905;30.343750
2.404692;30.343750
2.355816;30.343750
2.326491;30.343750
2.316716;30.390625
2.316716;30.390625
2.399804;30.390625
2.536657;30.390625
2.565982;30.406250
2.580645;30.406250
2.502444;30.406250
2.404692;30.406250
2.336266;30.406250
2.321603;30.406250
2.326491;30.406250
2.341153;30.421875
2.375367;30.421875
2.399804;30.421875
2.355816;30.421875
2.355816;30.453125
2.326491;30.453125
2.326491;30.453125
2.326491;30.453125
2.414467;30.484375
2.404692;30.484375
2.424242;30.484375
2.409580;30.484375
2.468231;30.484375
2.468231;30.515625
2.458456;30.515625
2.463343;30.515625
2.512219;30.515625
2.492669;30.515625
2.429130;30.515625
2.375367;30.515625
2.346041;30.562500
2.331378;30.562500
2.297165;30.562500
2.360704;30.562500
2.424242;30.562500
2.463343;30.562500
2.497556;30.562500
2.492669;30.562500
2.473118;30.578125
2.453568;30.578125
2.414467;30.578125
2.419355;30.625000
2.424242;30.625000
2.409580;30.625000
2.380254;30.625000
2.346041;30.640625
2.355816;30.640625
2.370479;30.640625
2.458456;30.687500
2.600196;30.687500
2.722385;30.687500
2.624633;30.687500
2.507331;30.703125
2.321603;30.703125
2.277615;30.703125
2.267840;30.750000
2.258065;30.750000
2.326491;30.750000
2.385142;30.750000
2.424242;30.765625
2.419355;30.765625
2.394917;30.765625
2.438905;30.812500
2.492669;30.812500
2.517107;30.812500
2.512219;30.828125
2.429130;30.828125
2.414467;30.828125
2.297165;30.828125
2.394917;30.828125
2.316716;30.828125
2.297165;30.828125
2.404692;30.828125
2.375367;30.843750
2.390029;30.843750
2.409580;30.890625
2.355816;30.890625
2.350929;30.890625
2.355816;30.890625
2.375367;30.906250
2.394917;30.906250
2.453568;30.906250
2.438905;30.921875
2.424242;30.921875
2.390029;30.921875
2.429130;30.921875
2.468231;30.953125
2.570870;30.953125
2.590420;30.953125
2.624633;30.968750
2.507331;30.968750
2.404692;30.968750
2.316716;30.968750
2.311828;30.968750
2.385142;30.968750
2.311828;30.968750
2.360704;30.968750
2.409580;30.984375
2.394917;30.984375
2.385142;30.984375
2.380254;31.031250
2.409580;31.031250
2.507331;31.031250
2.590420;31.031250
2.556207;31.078125
2.551320;31.078125
2.502444;31.078125
2.394917;31.078125
2.316716;31.093750
2.297165;31.093750
2.355816;31.093750
2.350929;31.140625
2.346041;31.140625
2.365591;31.140625
2.404692;31.140625
2.429130;31.156250
2.473118;31.156250
2.487781;31.156250
2.424242;31.203125
2.429130;31.203125
2.390029;31.203125
2.360704;31.203125
2.336266;31.234375
2.341153;31.234375
2.365591;31.234375
2.404692;31.281250
2.419355;31.281250
2.409580;31.281250
2.429130;31.281250
2.443793;31.296875
2.438905;31.296875
2.350929;31.296875
2.385142;31.343750
2.394917;31.343750
2.424242;31.343750
2.468231;31.343750
2.443793;31.375000
2.448680;31.375000
2.453568;31.375000
2.355816;31.390625
2.419355;31.390625
2.497556;31.390625
2.492669;31.390625
2.478006;31.437500
2.453568;31.437500
2.438905;31.437500
2.404692;31.437500
2.370479;31.437500
2.443793;31.437500
2.453568;31.437500
2.414467;31.453125
2.394917;31.453125
2.390029;31.453125
2.370479;31.468750
2.355816;31.468750
2.346041;31.468750
2.350929;31.468750
2.365591;31.468750
2.390029;31.468750
2.380254;31.468750
2.394917;31.484375
2.399804;31.484375
2.336266;31.484375
2.380254;31.484375
2.385142;31.484375
2.375367;31.484375
0.043988;31.484375
2.424242;31.484375
2.502444;31.500000
2.482893;31.500000
2.463343;31.500000
2.424242;31.500000
2.355816;31.515625
2.326491;31.515625
2.346041;31.515625
2.350929;31.546875
2.424242;31.546875
2.443793;31.546875
2.463343;31.546875
2.419355;31.562500
2.414467;31.562500
2.375367;31.562500
2.390029;31.609375
2.385142;31.609375
2.390029;31.609375
2.380254;31.609375
2.394917;31.625000
2.399804;31.625000
2.336266;31.625000
2.380254;31.640625
2.385142;31.640625
2.375367;31.640625
2.409580;31.640625
2.448680;31.656250
2.531769;31.656250
2.507331;31.656250
2.463343;31.671875
2.419355;31.671875
2.409580;31.671875
2.453568;31.671875
2.453568;31.703125
2.468231;31.703125
2.453568;31.703125
2.404692;31.703125
2.297165;31.718750
2.399804;31.718750
2.390029;31.718750
2.346041;31.734375
2.355816;31.734375
2.404692;31.734375
2.458456;31.734375
2.399804;31.750000
2.394917;31.750000
2.385142;31.750000
2.394917;31.796875
2.482893;31.796875
2.502444;31.796875
2.478006;31.796875
2.448680;31.812500
2.394917;31.812500
2.346041;31.812500
2.336266;31.828125
2.390029;31.828125
2.385142;31.828125
2.385142;31.828125
2.438905;31.843750
2.517107;31.843750
2.512219;31.843750
2.487781;31.859375
2.429130;31.859375
2.468231;31.859375
2.434018;31.859375
2.409580;31.890625
2.350929;31.890625
2.365591;31.890625
2.385142;31.906250
2.365591;31.906250
2.380254;31.906250
2.424242;31.906250
2.409580;31.937500
2.458456;31.937500
2.448680;31.937500
2.438905;31.937500
2.429130;31.953125
2.385142;31.953125
2.360704;31.953125
2.424242;31.984375
2.458456;31.984375
2.473118;31.984375
2.492669;31.984375
2.468231;32.015625
2.385142;32.015625
2.394917;32.015625
2.346041;32.078125
2.346041;32.078125
2.365591;32.078125
2.355816;32.078125
2.394917;32.093750
2.404692;32.093750
2.409580;32.093750
2.394917;32.125000
2.404692;32.125000
2.419355;32.125000
2.478006;32.125000
2.507331;32.140625
2.546432;32.140625
2.546432;32.140625
2.434018;32.140625
2.404692;32.156250
2.321603;32.156250
2.316716;32.156250
2.326491;32.203125
2.346041;32.203125
2.394917;32.203125
2.419355;32.203125
2.409580;32.218750
2.380254;32.218750
2.399804;32.218750
2.453568;32.265625
2.434018;32.265625
2.438905;32.265625
2.434018;32.265625
2.453568;32.281250
2.404692;32.281250
2.434018;32.281250
2.390029;32.281250
2.380254;32.296875
2.409580;32.296875
2.458456;32.296875
2.536657;32.343750
2.507331;32.343750
2.463343;32.343750
2.424242;32.343750
2.448680;32.359375
2.385142;32.359375
2.350929;32.359375
2.341153;32.406250
2.346041;32.406250
2.360704;32.406250
2.336266;32.406250
2.346041;32.421875
2.414467;32.421875
2.419355;32.421875
2.414467;32.468750
2.463343;32.468750
2.478006;32.468750
2.468231;32.468750
2.448680;32.484375
2.438905;32.484375
2.443793;32.484375
2.478006;32.484375
2.419355;32.484375
2.399804;32.484375
2.380254;32.484375
2.355816;32.531250
2.272727;32.531250
2.375367;32.531250
2.380254;32.531250
2.409580;32.546875
2.414467;32.546875
2.429130;32.546875
2.404692;32.562500
2.414467;32.562500
2.468231;32.562500
2.487781;32.562500
2.526882;32.578125
2.497556;32.578125
2.492669;32.578125
2.468231;32.578125
2.429130;32.609375
2.331378;32.609375
2.424242;32.609375
2.404692;32.656250
2.375367;32.656250
2.434018;32.656250
2.390029;32.656250
2.487781;32.671875
2.468231;32.671875
2.414467;32.671875
2.350929;32.687500
2.365591;32.687500
2.346041;32.687500
2.419355;32.687500
2.370479;32.734375
2.394917;32.734375
2.438905;32.734375
2.424242;32.750000
2.429130;32.750000
2.419355;32.750000
2.424242;32.750000
2.399804;32.750000
2.414467;32.750000
2.429130;32.750000
2.404692;32.765625
2.394917;32.765625
2.448680;32.765625
2.399804;32.765625
2.399804;32.796875
2.419355;32.796875
2.414467;32.796875
2.419355;32.796875
2.385142;32.812500
2.355816;32.812500
2.360704;32.812500
2.370479;32.859375
2.360704;32.859375
2.380254;32.859375
2.419355;32.859375
2.463343;32.906250
2.438905;32.906250
2.404692;32.906250
2.482893;32.921875
2.487781;32.921875
2.482893;32.921875
2.497556;32.921875
2.502444;32.968750
2.468231;32.968750
2.385142;32.968750
2.360704;32.968750
2.350929;32.984375
2.404692;32.984375
2.365591;32.984375
2.399804;33.000000
2.424242;33.000000
2.414467;33.000000
2.424242;33.000000
2.517107;33.046875
2.512219;33.046875
2.463343;33.046875
2.468231;33.046875
2.409580;33.062500
2.399804;33.062500
2.375367;33.062500
2.360704;33.062500
2.331378;33.062500
2.350929;33.062500
2.341153;33.093750
2.365591;33.093750
2.419355;33.093750
2.492669;33.093750
2.512219;33.125000
2.521994;33.125000
2.531769;33.125000
2.497556;33.171875
2.424242;33.171875
2.434018;33.171875
2.434018;33.171875
2.473118;33.171875
2.448680;33.171875
2.409580;33.171875
2.365591;33.171875
2.409580;33.187500
2.365591;33.187500
2.380254;33.187500
2.419355;33.203125
2.414467;33.203125
2.424242;33.203125
2.341153;33.250000
2.385142;33.250000
2.331378;33.250000
2.341153;33.250000
2.404692;33.265625
2.380254;33.265625
2.409580;33.265625
2.404692;33.265625
2.380254;33.281250
2.365591;33.281250
2.385142;33.281250
2.341153;33.312500
2.399804;33.312500
2.409580;33.312500
2.419355;33.312500
2.414467;33.343750
2.434018;33.343750
2.507331;33.343750
2.424242;33.390625
2.434018;33.390625
2.453568;33.390625
2.478006;33.390625
2.448680;33.406250
2.443793;33.406250
2.443793;33.406250
2.399804;33.406250
2.394917;33.406250
2.370479;33.406250
2.370479;33.406250
2.399804;33.421875
2.385142;33.421875
2.346041;33.421875
2.375367;33.421875
2.438905;33.421875
2.375367;33.421875
2.394917;33.421875
2.394917;33.437500
2.429130;33.437500
2.409580;33.437500
2.394917;33.437500
2.355816;33.453125
2.350929;33.453125
2.375367;33.453125
2.375367;33.484375
2.419355;33.484375
2.453568;33.484375
2.507331;33.484375
2.478006;33.484375
2.458456;33.500000
2.551320;33.500000
2.458456;33.500000
2.458456;33.500000
2.424242;33.546875
2.399804;33.546875
2.360704;33.546875
2.326491;33.546875
2.346041;33.546875
2.375367;33.562500
2.341153;33.562500
2.390029;33.562500
2.409580;33.562500
2.438905;33.593750
2.473118;33.593750
2.502444;33.593750
2.502444;33.593750
2.565982;33.593750
2.497556;33.609375
2.434018;33.609375
2.409580;33.609375
2.346041;33.609375
2.341153;33.609375
2.321603;33.656250
2.346041;33.656250
2.419355;33.656250
2.419355;33.671875
2.443793;33.671875
2.448680;33.671875
2.429130;33.671875
2.414467;33.718750
2.365591;33.718750
2.380254;33.718750
2.380254;33.718750
2.370479;33.718750
2.419355;33.718750
2.404692;33.718750
2.419355;33.718750
2.399804;33.734375
2.365591;33.734375
2.365591;33.734375
2.419355;33.781250
2.404692;33.781250
2.390029;33.781250
2.448680;33.781250
2.419355;33.812500
2.424242;33.812500
2.419355;33.812500
2.326491;33.812500
2.419355;33.828125
2.434018;33.828125
2.443793;33.828125
2.448680;33.875000
2.463343;33.875000
2.434018;33.875000
2.380254;33.875000
2.365591;33.906250
2.380254;33.906250
2.326491;33.906250
2.399804;33.906250
2.429130;33.921875
2.453568;33.921875
2.443793;33.921875
2.429130;33.968750
2.463343;33.968750
2.399804;33.968750
2.424242;33.968750
2.473118;33.984375
2.502444;33.984375
2.512219;33.984375
2.458456;34.031250
2.355816;34.031250
2.375367;34.031250
2.302053;34.031250
2.287390;34.062500
2.326491;34.062500
2.380254;34.062500
2.424242;34.109375
2.419355;34.109375
2.390029;34.109375
2.380254;34.109375
2.419355;34.125000
2.453568;34.125000
2.453568;34.125000
2.463343;34.171875
2.478006;34.171875
2.443793;34.171875
2.399804;34.171875
2.414467;34.171875
2.424242;34.171875
2.414467;34.203125
2.424242;34.203125
2.424242;34.203125
2.438905;34.203125
2.448680;34.203125
2.521994;34.218750
2.478006;34.218750
2.468231;34.218750
2.404692;34.218750
2.404692;34.234375
2.385142;34.234375
2.370479;34.234375
2.336266;34.234375
2.331378;34.234375
2.380254;34.250000
2.458456;34.250000
2.482893;34.250000
2.497556;34.250000
2.478006;34.265625
2.438905;34.265625
2.365591;34.265625
2.424242;34.265625
2.331378;34.265625
2.341153;34.265625
2.394917;34.265625
2.409580;34.265625
2.458456;34.296875
2.434018;34.296875
2.409580;34.296875
2.414467;34.343750
2.385142;34.343750
2.341153;34.343750
2.399804;34.343750
2.414467;34.406250
2.429130;34.406250
2.434018;34.406250
2.473118;34.453125
2.502444;34.453125
2.521994;34.453125
2.463343;34.453125
2.463343;34.468750
2.414467;34.468750
2.414467;34.468750
2.399804;34.484375
2.399804;34.484375
2.390029;34.484375
2.409580;34.484375
2.360704;34.515625
2.414467;34.515625
2.448680;34.515625
2.482893;34.515625
2.434018;34.546875
2.404692;34.546875
2.443793;34.546875
2.346041;34.546875
2.355816;34.562500
2.536657;34.562500
2.570870;34.562500
2.565982;34.562500
2.487781;34.578125
2.385142;34.578125
2.316716;34.578125
2.292278;34.625000
2.262952;34.625000
2.302053;34.625000
2.370479;34.625000
2.414467;34.625000
2.414467;34.625000
2.434018;34.625000
2.380254;34.640625
2.473118;34.640625
2.521994;34.640625
2.443793;34.640625
2.414467;34.687500
2.399804;34.687500
2.341153;34.687500
2.331378;34.687500
2.321603;34.734375
2.316716;34.734375
2.360704;34.734375
2.375367;34.734375
2.414467;34.750000
2.424242;34.750000
2.409580;34.750000
2.409580;34.765625
2.429130;34.765625
2.385142;34.765625
2.414467;34.765625
2.429130;34.812500
2.419355;34.812500
2.448680;34.812500
2.414467;34.812500
2.399804;34.828125
2.404692;34.828125
2.404692;34.828125
2.424242;34.828125
2.414467;34.828125
2.429130;34.859375
2.429130;34.859375
2.443793;34.859375
2.360704;34.859375
2.448680;34.859375
2.414467;34.890625
2.419355;34.890625
2.429130;34.890625
2.463343;34.890625
2.443793;34.890625
2.409580;34.906250
2.375367;34.906250
2.360704;34.906250
2.380254;34.953125
2.434018;34.953125
2.512219;34.953125
2.468231;34.953125
2.487781;34.984375
2.385142;34.984375
2.448680;34.984375
2.434018;35.000000
2.390029;35.000000
2.399804;35.000000
2.409580;35.000000
2.409580;35.015625
2.385142;35.015625
2.311828;35.015625
2.316716;35.015625
2.341153;35.015625
2.336266;35.015625
2.419355;35.015625
2.458456;35.015625
2.492669;35.031250
2.541544;35.031250
2.526882;35.031250
2.468231;35.031250
2.463343;35.046875
2.482893;35.046875
2.482893;35.046875
2.448680;35.093750
2.429130;35.093750
2.350929;35.093750
2.302053;35.093750
2.272727;35.109375
2.272727;35.109375
2.277615;35.109375
2.365591;35.125000
2.424242;35.125000
2.419355;35.125000
2.390029;35.125000
2.370479;35.140625
2.409580;35.140625
2.370479;35.140625
2.385142;35.156250
2.404692;35.156250
2.404692;35.156250
2.399804;35.156250
2.385142;35.187500
2.355816;35.187500
2.385142;35.187500
2.365591;35.187500
2.424242;35.203125
2.487781;35.203125
2.502444;35.203125
2.507331;35.218750
2.463343;35.218750
2.502444;35.218750
2.443793;35.218750
2.346041;35.234375
2.360704;35.234375
2.394917;35.234375
2.424242;35.234375
2.478006;35.250000
2.507331;35.250000
2.507331;35.250000
2.507331;35.265625
2.443793;35.265625
2.482893;35.265625
2.497556;35.265625
2.453568;35.328125
2.390029;35.328125
2.277615;35.328125
2.331378;35.328125
2.282502;35.343750
2.287390;35.343750
2.311828;35.343750
2.355816;35.375000
2.375367;35.375000
2.394917;35.375000
2.434018;35.375000
2.434018;35.390625
2.429130;35.390625
2.404692;35.390625
2.404692;35.437500
2.390029;35.437500
2.419355;35.437500
2.365591;35.437500
2.350929;35.453125
2.409580;35.453125
2.355816;35.453125
2.385142;35.500000
2.424242;35.500000
2.448680;35.500000
2.438905;35.500000
2.429130;35.546875
2.394917;35.546875
2.350929;35.546875
2.390029;35.562500
2.390029;35.562500
2.380254;35.562500
2.429130;35.562500
2.438905;35.562500
2.404692;35.562500
2.394917;35.562500
2.473118;35.578125
2.478006;35.578125
2.502444;35.578125
2.580645;35.578125
2.585533;35.578125
2.541544;35.578125
2.424242;35.578125
2.350929;35.578125
2.297165;35.593750
2.282502;35.593750
2.360704;35.593750
2.434018;35.640625
2.556207;35.640625
2.551320;35.640625
2.497556;35.640625
2.458456;35.656250
2.409580;35.656250
2.336266;35.656250
2.287390;35.656250
2.316716;35.687500
2.331378;35.687500
2.365591;35.687500
2.414467;35.734375
2.414467;35.734375
2.414467;35.734375
2.419355;35.734375
2.380254;35.750000
2.438905;35.750000
2.463343;35.750000
2.487781;35.796875
2.473118;35.796875
2.438905;35.796875
2.404692;35.796875
2.414467;35.812500
2.390029;35.812500
2.326491;35.812500
2.370479;35.828125
2.350929;35.828125
2.390029;35.828125
2.394917;35.828125
2.404692;35.859375
2.443793;35.859375
2.429130;35.859375
2.429130;35.859375
2.438905;35.875000
2.409580;35.875000
2.321603;35.875000
2.414467;35.875000
2.360704;35.875000
2.399804;35.875000
2.414467;35.921875
2.424242;35.921875
2.443793;35.921875
2.429130;35.921875
2.370479;35.921875
2.355816;35.921875
2.346041;35.921875
2.326491;35.968750
2.355816;35.968750
2.429130;35.968750
2.429130;35.984375
2.443793;35.984375
2.390029;35.984375
2.507331;35.984375
2.414467;35.984375
2.409580;35.984375
2.414467;35.984375
2.424242;35.984375
2.404692;36.015625
2.375367;36.015625
2.355816;36.015625
2.360704;36.015625
2.399804;36.015625
2.448680;36.062500
2.502444;36.062500
2.556207;36.062500
2.561095;36.062500
2.512219;36.093750
2.453568;36.093750
2.424242;36.093750
2.409580;36.093750
2.404692;36.093750
2.350929;36.109375
2.365591;36.109375
2.404692;36.109375
2.390029;36.109375
2.346041;36.109375
2.346041;36.140625
2.321603;36.140625
2.316716;36.140625
2.360704;36.140625
2.394917;36.140625
2.448680;36.156250
2.448680;36.156250
2.487781;36.156250
2.473118;36.156250
2.404692;36.156250
2.502444;36.187500
2.478006;36.187500
2.531769;36.187500
2.512219;36.187500
2.487781;36.203125
2.434018;36.203125
2.414467;36.203125
2.399804;36.203125
2.341153;36.203125
2.321603;36.218750
2.360704;36.218750
2.331378;36.218750
2.306940;36.218750
2.385142;36.265625
2.380254;36.265625
2.385142;36.265625
2.390029;36.265625
2.458456;36.265625
2.473118;36.265625
2.438905;36.265625
2.365591;36.312500
2.326491;36.312500
2.316716;36.312500
2.326491;36.312500
2.350929;36.328125
2.404692;36.328125
2.448680;36.328125
2.458456;36.375000
2.375367;36.375000
2.448680;36.375000
2.375367;36.375000
2.394917;36.375000
2.390029;36.375000
2.414467;36.375000
2.429130;36.375000
2.394917;36.390625
2.375367;36.390625
2.355816;36.390625
2.370479;36.406250
2.375367;36.406250
2.463343;36.406250
2.497556;36.406250
2.507331;36.421875
2.497556;36.421875
2.424242;36.421875
2.473118;36.437500
2.370479;36.437500
2.404692;36.437500
2.350929;36.437500
2.385142;36.484375
2.380254;36.484375
2.394917;36.484375
2.360704;36.484375
2.355816;36.500000
2.355816;36.500000
2.370479;36.500000
2.399804;36.546875
2.473118;36.546875
2.551320;36.546875
2.570870;36.546875
2.551320;36.546875
2.526882;36.546875
2.497556;36.546875
2.487781;36.562500
2.434018;36.562500
2.375367;36.562500
2.370479;36.562500
2.365591;36.578125
2.336266;36.578125
2.326491;36.578125
2.375367;36.625000
2.346041;36.625000
2.394917;36.625000
2.404692;36.625000
2.375367;36.640625
2.375367;36.640625
2.414467;36.640625
2.409580;36.687500
2.424242;36.687500
2.404692;36.687500
2.424242;36.703125
2.419355;36.703125
2.443793;36.703125
2.429130;36.703125
2.434018;36.734375
2.429130;36.734375
2.375367;36.734375
2.321603;36.750000
2.350929;36.750000
2.385142;36.750000
2.390029;36.750000
2.385142;36.750000
2.409580;36.750000
2.429130;36.750000
2.463343;36.765625
2.394917;36.765625
2.414467;36.765625
2.429130;36.765625
2.390029;36.781250
2.404692;36.781250
2.375367;36.781250
2.424242;36.828125
2.419355;36.828125
2.419355;36.828125
2.434018;36.828125
2.448680;36.828125
2.429130;36.828125
2.385142;36.828125
2.380254;36.875000
2.350929;36.875000
2.360704;36.875000
2.380254;36.875000
2.399804;36.875000
2.424242;36.875000
2.414467;36.875000
2.375367;36.875000
2.380254;36.875000
2.438905;36.875000
2.424242;36.875000
2.482893;36.921875
2.531769;36.921875
2.546432;36.921875
2.521994;36.921875
2.468231;36.921875
2.399804;36.921875
2.380254;36.921875
2.346041;36.937500
2.346041;36.937500
2.365591;36.937500
2.375367;36.937500
2.370479;36.937500
2.399804;36.937500
2.404692;36.937500
2.404692;36.984375
2.380254;36.984375
2.419355;36.984375
2.414467;36.984375
2.443793;36.984375
2.414467;36.984375
2.399804;36.984375
2.365591;37.031250
2.419355;37.031250
2.443793;37.031250
2.526882;37.031250
2.551320;37.046875
2.551320;37.046875
2.473118;37.046875
2.326491;37.093750
2.370479;37.093750
2.341153;37.093750
2.321603;37.109375
2.346041;37.109375
2.414467;37.109375
2.438905;37.125000
2.434018;37.125000
2.394917;37.125000
2.399804;37.125000
2.443793;37.140625
2.438905;37.140625
2.414467;37.140625
2.424242;37.156250
2.399804;37.156250
2.355816;37.156250
2.267840;37.171875
2.321603;37.171875
2.311828;37.171875
2.326491;37.171875
2.380254;37.203125
2.478006;37.203125
2.473118;37.203125
2.487781;37.203125
2.468231;37.218750
2.453568;37.218750
2.463343;37.218750
2.438905;37.265625
2.394917;37.265625
2.394917;37.265625
2.360704;37.265625
2.326491;37.281250
2.262952;37.281250
2.336266;37.281250
2.370479;37.328125
2.463343;37.328125
2.458456;37.328125
2.492669;37.328125
2.424242;37.328125
2.409580;37.328125
2.394917;37.328125
2.390029;37.375000
2.429130;37.375000
2.463343;37.375000
2.517107;37.375000
2.551320;37.390625
2.521994;37.390625
2.468231;37.390625
2.492669;37.437500
2.429130;37.437500
2.306940;37.437500
2.316716;37.437500
2.360704;37.453125
2.390029;37.453125
2.355816;37.453125
2.370479;37.484375
2.394917;37.484375
2.434018;37.484375
2.409580;37.500000
2.458456;37.500000
2.409580;37.500000
2.409580;37.500000
2.419355;37.546875
2.355816;37.546875
2.350929;37.546875
2.394917;37.546875
2.370479;37.593750
2.404692;37.593750
2.458456;37.593750
2.453568;37.609375
2.478006;37.609375
2.458456;37.609375
2.434018;37.609375
2.434018;37.640625
2.419355;37.640625
2.453568;37.640625
2.473118;37.640625
2.458456;37.656250
2.414467;37.656250
2.419355;37.656250
2.331378;37.687500
2.341153;37.687500
2.336266;37.687500
2.370479;37.703125
2.380254;37.703125
2.399804;37.703125
2.394917;37.703125
2.409580;37.750000
2.394917;37.750000
2.434018;37.750000
2.507331;37.750000
2.482893;37.750000
2.458456;37.750000
2.468231;37.750000
2.448680;37.781250
2.414467;37.781250
2.424242;37.781250
2.390029;37.781250
2.346041;37.796875
2.341153;37.796875
2.429130;37.796875
2.438905;37.843750
2.429130;37.843750
2.429130;37.843750
2.482893;37.890625
2.507331;37.890625
2.492669;37.890625
2.478006;37.906250
2.438905;37.906250
2.394917;37.906250
2.316716;37.906250
2.350929;37.953125
2.331378;37.953125
2.297165;37.953125
2.365591;37.968750
2.385142;37.968750
2.424242;37.968750
2.429130;37.968750
2.385142;37.984375
2.390029;37.984375
2.404692;37.984375
2.380254;38.000000
2.404692;38.000000
2.419355;38.000000
2.419355;38.000000
2.399804;38.000000
2.380254;38.000000
2.326491;38.000000
2.380254;38.046875
2.360704;38.046875
2.394917;38.046875
2.438905;38.046875
2.429130;38.046875
2.424242;38.046875
2.404692;38.046875
2.429130;38.046875
2.448680;38.062500
2.399804;38.062500
2.478006;38.062500
2.482893;38.109375
2.458456;38.109375
2.434018;38.109375
2.350929;38.125000
2.419355;38.125000
2.370479;38.125000
2.390029;38.125000
2.365591;38.140625
2.473118;38.140625
2.502444;38.140625
2.512219;38.187500
2.492669;38.187500
2.497556;38.187500
2.536657;38.187500
2.609971;38.203125
2.580645;38.203125
2.497556;38.203125
2.390029;38.218750
2.336266;38.218750
2.258065;38.218750
2.233627;38.218750
2.302053;38.250000
2.277615;38.250000
2.355816;38.250000
2.424242;38.265625
2.404692;38.265625
2.414467;38.265625
2.473118;38.265625
2.492669;38.312500
2.473118;38.312500
2.473118;38.312500
2.443793;38.312500
2.385142;38.328125
2.380254;38.328125
2.350929;38.328125
2.282502;38.375000
2.297165;38.375000
2.355816;38.375000
2.365591;38.375000
2.390029;38.406250
2.414467;38.406250
2.424242;38.406250
2.399804;38.406250
2.394917;38.421875
2.399804;38.421875
2.409580;38.421875
2.394917;38.453125
2.443793;38.453125
2.453568;38.453125
2.424242;38.453125
2.424242;38.453125
2.448680;38.453125
2.394917;38.453125
2.360704;38.500000
2.390029;38.500000
2.375367;38.500000
2.453568;38.515625
2.429130;38.515625
2.404692;38.515625
2.380254;38.515625
2.414467;38.515625
2.434018;38.515625
2.404692;38.515625
2.443793;38.515625
2.424242;38.531250
2.443793;38.531250
2.482893;38.531250
2.507331;38.531250
2.556207;38.531250
2.546432;38.531250
2.526882;38.578125
2.531769;38.578125
2.473118;38.578125
2.419355;38.578125
2.390029;38.593750
2.463343;38.593750
2.546432;38.593750
2.605083;38.640625
2.565982;38.640625
2.502444;38.640625
2.438905;38.640625
2.375367;38.640625
2.262952;38.640625
2.341153;38.640625
2.297165;38.640625
2.311828;38.671875
2.360704;38.671875
2.414467;38.671875
2.341153;38.671875
2.311828;38.671875
2.326491;38.687500
2.331378;38.687500
2.375367;38.687500
2.409580;38.687500
2.424242;38.734375
2.448680;38.734375
2.414467;38.734375
2.394917;38.734375
2.326491;38.734375
2.346041;38.765625
2.321603;38.765625
2.360704;38.765625
2.350929;38.765625
2.429130;38.781250
2.434018;38.781250
2.409580;38.781250
2.385142;38.781250
2.390029;38.781250
2.394917;38.812500
2.458456;38.812500
2.419355;38.812500
2.399804;38.812500
2.394917;38.812500
2.375367;38.812500
2.385142;38.812500
2.380254;38.812500
2.370479;38.812500
2.434018;38.812500
2.517107;38.828125
2.565982;38.828125
2.546432;38.828125
2.482893;38.828125
2.468231;38.843750
2.443793;38.843750
2.414467;38.843750
2.497556;38.843750
2.595308;38.843750
2.649071;38.875000
2.619746;38.875000
2.487781;38.875000
2.453568;38.875000
2.355816;38.875000
2.302053;38.906250
2.321603;38.906250
2.326491;38.906250
2.429130;38.906250
2.424242;38.906250
2.380254;38.921875
2.336266;38.921875
2.297165;38.921875
2.292278;38.921875
2.355816;38.921875
2.404692;38.937500
2.419355;38.937500
2.448680;38.937500
2.434018;38.937500
2.463343;38.953125
2.478006;38.953125
2.526882;38.953125
2.492669;39.000000
2.463343;39.000000
2.424242;39.000000
2.360704;39.000000
2.336266;39.015625
2.331378;39.015625
0.014663;39.015625
2.409580;39.062500
2.380254;39.062500
2.331378;39.062500
2.346041;39.078125
2.346041;39.078125
2.434018;39.078125
2.536657;39.078125
2.473118;39.093750
2.404692;39.093750
2.346041;39.093750
2.287390;39.093750
2.199413;39.109375
0.029326;39.109375
2.429130;39.109375
2.331378;39.125000
2.380254;39.125000
2.394917;39.125000
2.429130;39.125000
2.448680;39.171875
2.419355;39.171875
2.336266;39.171875
2.458456;39.171875
2.561095;39.218750
2.551320;39.218750
2.570870;39.218750
2.458456;39.218750
2.409580;39.218750
2.380254;39.218750
2.331378;39.218750
2.346041;39.218750
2.346041;39.218750
2.434018;39.234375
2.536657;39.234375
2.473118;39.234375
2.404692;39.234375
2.346041;39.234375
2.287390;39.265625
2.199413;39.265625
2.326491;39.265625
0.034213;39.265625
2.331378;39.265625
2.380254;39.296875
2.394917;39.296875
2.429130;39.296875
2.448680;39.296875
2.419355;39.296875
2.336266;39.312500
2.458456;39.312500
2.561095;39.312500
2.551320;39.312500
2.570870;39.312500
2.458456;39.312500
2.409580;39.312500
2.380254;39.328125
2.331378;39.328125
2.346041;39.328125
2.346041;39.328125
2.434018;39.375000
2.536657;39.375000
2.473118;39.375000
2.404692;39.375000
2.346041;39.390625
2.287390;39.390625
2.199413;39.390625
2.326491;39.390625
2.414467;39.406250
2.463343;39.406250
2.546432;39.406250
2.561095;39.437500
2.492669;39.437500
2.473118;39.437500
2.385142;39.484375
2.350929;39.484375
2.316716;39.484375
2.346041;39.484375
2.336266;39.515625
2.331378;39.515625
2.360704;39.515625
2.292278;39.515625
2.360704;39.515625
2.321603;39.562500
2.321603;39.562500
2.331378;39.562500
2.380254;39.562500
2.424242;39.562500
2.438905;39.562500
2.414467;39.593750
2.399804;39.593750
2.394917;39.593750
2.453568;39.593750
2.443793;39.609375
2.434018;39.609375
2.458456;39.609375
2.463343;39.609375
2.438905;39.609375
2.468231;39.625000
2.394917;39.625000
2.385142;39.625000
2.443793;39.625000
2.478006;39.656250
2.487781;39.656250
2.463343;39.656250
2.429130;39.703125
2.419355;39.703125
